% Time (s), ECG_DATA[17:0], ETAG[2:0], PTAG[2:0], ECG (mV), LDOFF_PH, LDOFF_PL, LDOFF_NH, LDOFF_NL
0, 0, 0, 7, 0, 
0.0078125, 0, 0, 7, 0, 
0.015625, -1, 0, 7, -0.0003814697265625, 
0.0234375, -2, 0, 7, -0.000762939453125, 
0.03125, -3, 0, 7, -0.0011444091796875, 
0.0390625, -5, 0, 7, -0.0019073486328125, 
0.046875, -7, 0, 7, -0.0026702880859375, 
0.0546875, -9, 0, 7, -0.0034332275390625, 
0.0625, -11, 0, 7, -0.0041961669921875, 
0.0703125, -13, 0, 7, -0.0049591064453125, 
0.078125, -14, 0, 7, -0.005340576171875, 
0.0859375, -16, 0, 7, -0.006103515625, 
0.09375, -20, 0, 7, -0.00762939453125, 
0.1015625, -17, 0, 7, -0.0064849853515625, 
0.109375, -24, 0, 7, -0.0091552734375, 
0.1171875, -27, 2, 7, -0.0102996826171875, 
0.125, -15, 0, 7, -0.0057220458984375, 
0.1328125, -22, 0, 7, -0.008392333984375, 
0.140625, -53, 0, 7, -0.0202178955078125, 
0.1484375, -64, 0, 7, -0.0244140625, 
0.15625, -26, 0, 7, -0.009918212890625, 
0.1640625, 36, 0, 7, 0.01373291015625, 
0.171875, 69, 0, 7, 0.0263214111328125, 
0.1796875, 51, 0, 7, 0.0194549560546875, 
0.1875, 30, 0, 7, 0.011444091796875, 
0.1953125, 94, 0, 7, 0.035858154296875, 
0.203125, 160, 0, 7, 0.06103515625, 
0.2109375, 100, 0, 7, 0.03814697265625, 
0.21875, -9, 0, 7, -0.0034332275390625, 
0.2265625, -34, 0, 7, -0.012969970703125, 
0.234375, 60, 0, 7, 0.02288818359375, 
0.2421875, 169, 2, 7, 0.0644683837890625, 
0.25, 145, 0, 7, 0.0553131103515625, 
0.2578125, 74, 0, 7, 0.028228759765625, 
0.265625, 77, 0, 7, 0.0293731689453125, 
0.2734375, 128, 0, 7, 0.048828125, 
0.28125, 129, 0, 7, 0.0492095947265625, 
0.2890625, 97, 0, 7, 0.0370025634765625, 
0.296875, 134, 0, 7, 0.051116943359375, 
0.3046875, 192, 0, 7, 0.0732421875, 
0.3125, 225, 0, 7, 0.0858306884765625, 
0.3203125, 234, 0, 7, 0.089263916015625, 
0.328125, 265, 0, 7, 0.101089477539063, 
0.3359375, 362, 0, 7, 0.138092041015625, 
0.34375, 413, 0, 7, 0.157546997070313, 
0.3515625, 340, 0, 7, 0.12969970703125, 
0.359375, 241, 0, 7, 0.0919342041015625, 
0.3671875, 234, 2, 7, 0.089263916015625, 
0.375, 304, 0, 7, 0.115966796875, 
0.3828125, 305, 0, 7, 0.116348266601563, 
0.390625, 181, 0, 7, 0.0690460205078125, 
0.3984375, 44, 0, 7, 0.01678466796875, 
0.40625, 14, 0, 7, 0.005340576171875, 
0.4140625, 36, 0, 7, 0.01373291015625, 
0.421875, -5, 0, 7, -0.0019073486328125, 
0.4296875, -94, 0, 7, -0.035858154296875, 
0.4375, -136, 0, 7, -0.0518798828125, 
0.4453125, -99, 0, 7, -0.0377655029296875, 
0.453125, -49, 0, 7, -0.0186920166015625, 
0.4609375, -35, 0, 7, -0.0133514404296875, 
0.46875, 4, 0, 7, 0.00152587890625, 
0.4765625, 97, 0, 7, 0.0370025634765625, 
0.484375, 140, 0, 7, 0.05340576171875, 
0.4921875, 102, 2, 7, 0.038909912109375, 
0.5, 64, 0, 7, 0.0244140625, 
0.5078125, 101, 0, 7, 0.0385284423828125, 
0.515625, 151, 0, 7, 0.0576019287109375, 
0.5234375, 164, 0, 7, 0.06256103515625, 
0.53125, 155, 0, 7, 0.0591278076171875, 
0.5390625, 171, 0, 7, 0.0652313232421875, 
0.546875, 241, 0, 7, 0.0919342041015625, 
0.5546875, 266, 0, 7, 0.101470947265625, 
0.5625, 245, 0, 7, 0.0934600830078125, 
0.5703125, 255, 0, 7, 0.0972747802734375, 
0.578125, 265, 0, 7, 0.101089477539063, 
0.5859375, 253, 0, 7, 0.0965118408203125, 
0.59375, 247, 0, 7, 0.0942230224609375, 
0.6015625, 274, 0, 7, 0.104522705078125, 
0.609375, 283, 0, 7, 0.107955932617188, 
0.6171875, 276, 2, 7, 0.10528564453125, 
0.625, 327, 0, 7, 0.124740600585938, 
0.6328125, 390, 0, 7, 0.148773193359375, 
0.640625, 409, 0, 7, 0.156021118164063, 
0.6484375, 380, 0, 7, 0.14495849609375, 
0.65625, 260, 0, 7, 0.09918212890625, 
0.6640625, 166, 0, 7, 0.063323974609375, 
0.671875, 204, 0, 7, 0.07781982421875, 
0.6796875, 328, 0, 7, 0.1251220703125, 
0.6875, 399, 0, 7, 0.152206420898438, 
0.6953125, 337, 0, 7, 0.128555297851563, 
0.703125, 225, 0, 7, 0.0858306884765625, 
0.7109375, 193, 0, 7, 0.0736236572265625, 
0.71875, 251, 0, 7, 0.0957489013671875, 
0.7265625, 240, 0, 7, 0.091552734375, 
0.734375, 189, 0, 7, 0.0720977783203125, 
0.7421875, 292, 2, 7, 0.11138916015625, 
0.75, 433, 0, 7, 0.165176391601563, 
0.7578125, 360, 0, 7, 0.1373291015625, 
0.765625, 72, 0, 7, 0.0274658203125, 
0.7734375, -175, 0, 7, -0.0667572021484375, 
0.78125, -88, 0, 7, -0.0335693359375, 
0.7890625, 234, 0, 7, 0.089263916015625, 
0.796875, 413, 0, 7, 0.157546997070313, 
0.8046875, 297, 0, 7, 0.113296508789063, 
0.8125, 144, 0, 7, 0.054931640625, 
0.8203125, 138, 0, 7, 0.052642822265625, 
0.828125, 90, 0, 7, 0.034332275390625, 
0.8359375, -85, 0, 7, -0.0324249267578125, 
0.84375, -206, 0, 7, -0.078582763671875, 
0.8515625, -143, 0, 7, -0.0545501708984375, 
0.859375, -39, 0, 7, -0.0148773193359375, 
0.8671875, -82, 2, 7, -0.031280517578125, 
0.875, -173, 0, 7, -0.0659942626953125, 
0.8828125, -137, 0, 7, -0.0522613525390625, 
0.890625, -12, 0, 7, -0.00457763671875, 
0.8984375, 101, 0, 7, 0.0385284423828125, 
0.90625, 175, 0, 7, 0.0667572021484375, 
0.9140625, 213, 0, 7, 0.0812530517578125, 
0.921875, 110, 0, 7, 0.041961669921875, 
0.9296875, -129, 0, 7, -0.0492095947265625, 
0.9375, -260, 0, 7, -0.09918212890625, 
0.9453125, -211, 0, 7, -0.0804901123046875, 
0.953125, -124, 0, 7, -0.04730224609375, 
0.9609375, -34, 0, 7, -0.012969970703125, 
0.96875, 48, 0, 7, 0.018310546875, 
0.9765625, 50, 0, 7, 0.019073486328125, 
0.984375, -89, 0, 7, -0.0339508056640625, 
0.9921875, -278, 2, 7, -0.106048583984375, 
1, -328, 0, 7, -0.1251220703125, 
1.0078125, -205, 0, 7, -0.0782012939453125, 
1.015625, -53, 0, 7, -0.0202178955078125, 
1.0234375, -32, 0, 7, -0.01220703125, 
1.03125, -81, 0, 7, -0.0308990478515625, 
1.0390625, -106, 0, 7, -0.040435791015625, 
1.046875, -107, 0, 7, -0.0408172607421875, 
1.0546875, -68, 0, 7, -0.02593994140625, 
1.0625, -35, 0, 7, -0.0133514404296875, 
1.0703125, -47, 0, 7, -0.0179290771484375, 
1.078125, -84, 0, 7, -0.03204345703125, 
1.0859375, -75, 0, 7, -0.0286102294921875, 
1.09375, 7, 0, 7, 0.0026702880859375, 
1.1015625, 68, 0, 7, 0.02593994140625, 
1.109375, 0, 0, 7, 0, 
1.1171875, -180, 2, 7, -0.06866455078125, 
1.125, -339, 0, 7, -0.129318237304688, 
1.1328125, -403, 0, 7, -0.153732299804688, 
1.140625, -438, 0, 7, -0.167083740234375, 
1.1484375, -507, 0, 7, -0.193405151367188, 
1.15625, -572, 0, 7, -0.21820068359375, 
1.1640625, -549, 0, 7, -0.209426879882813, 
1.171875, -539, 0, 7, -0.205612182617188, 
1.1796875, -632, 0, 7, -0.2410888671875, 
1.1875, -725, 0, 7, -0.276565551757813, 
1.1953125, -672, 0, 7, -0.25634765625, 
1.203125, -546, 0, 7, -0.208282470703125, 
1.2109375, -545, 0, 7, -0.207901000976563, 
1.21875, -631, 0, 7, -0.240707397460938, 
1.2265625, -626, 0, 7, -0.238800048828125, 
1.234375, -562, 0, 7, -0.214385986328125, 
1.2421875, -584, 2, 7, -0.2227783203125, 
1.25, -696, 0, 7, -0.2655029296875, 
1.2578125, -729, 0, 7, -0.278091430664063, 
1.265625, -610, 0, 7, -0.232696533203125, 
1.2734375, -499, 0, 7, -0.190353393554688, 
1.28125, -507, 0, 7, -0.193405151367188, 
1.2890625, -564, 0, 7, -0.21514892578125, 
1.296875, -553, 0, 7, -0.210952758789063, 
1.3046875, -504, 0, 7, -0.1922607421875, 
1.3125, -493, 0, 7, -0.188064575195313, 
1.3203125, -548, 0, 7, -0.20904541015625, 
1.328125, -647, 0, 7, -0.246810913085938, 
1.3359375, -678, 0, 7, -0.258636474609375, 
1.34375, -609, 0, 7, -0.232315063476563, 
1.3515625, -515, 0, 7, -0.196456909179688, 
1.359375, -424, 0, 7, -0.1617431640625, 
1.3671875, -388, 2, 7, -0.14801025390625, 
1.375, -487, 0, 7, -0.185775756835938, 
1.3828125, -625, 0, 7, -0.238418579101563, 
1.390625, -686, 0, 7, -0.261688232421875, 
1.3984375, -649, 0, 7, -0.247573852539063, 
1.40625, -597, 0, 7, -0.227737426757813, 
1.4140625, -647, 0, 7, -0.246810913085938, 
1.421875, -713, 0, 7, -0.271987915039063, 
1.4296875, -658, 0, 7, -0.251007080078125, 
1.4375, -571, 0, 7, -0.217819213867188, 
1.4453125, -569, 0, 7, -0.217056274414063, 
1.453125, -576, 0, 7, -0.2197265625, 
1.4609375, -531, 0, 7, -0.202560424804688, 
1.46875, -487, 0, 7, -0.185775756835938, 
1.4765625, -484, 0, 7, -0.18463134765625, 
1.484375, -500, 0, 7, -0.19073486328125, 
1.4921875, -494, 2, 7, -0.188446044921875, 
1.5, -447, 0, 7, -0.170516967773438, 
1.5078125, -410, 0, 7, -0.156402587890625, 
1.515625, -459, 0, 7, -0.175094604492188, 
1.5234375, -539, 0, 7, -0.205612182617188, 
1.53125, -603, 0, 7, -0.230026245117188, 
1.5390625, -621, 0, 7, -0.236892700195313, 
1.546875, -562, 0, 7, -0.214385986328125, 
1.5546875, -521, 0, 7, -0.198745727539063, 
1.5625, -535, 0, 7, -0.204086303710938, 
1.5703125, -435, 0, 7, -0.165939331054688, 
1.578125, -193, 0, 7, -0.0736236572265625, 
1.5859375, -63, 0, 7, -0.0240325927734375, 
1.59375, -230, 0, 7, -0.087738037109375, 
1.6015625, -566, 0, 7, -0.215911865234375, 
1.609375, -781, 0, 7, -0.297927856445313, 
1.6171875, -749, 2, 7, -0.285720825195313, 
1.625, -579, 0, 7, -0.220870971679688, 
1.6328125, -429, 0, 7, -0.163650512695313, 
1.640625, -350, 0, 7, -0.133514404296875, 
1.6484375, -320, 0, 7, -0.1220703125, 
1.65625, -355, 0, 7, -0.135421752929688, 
1.6640625, -386, 0, 7, -0.147247314453125, 
1.671875, -349, 0, 7, -0.133132934570313, 
1.6796875, -326, 0, 7, -0.124359130859375, 
1.6875, -282, 0, 7, -0.107574462890625, 
1.6953125, -188, 0, 7, -0.07171630859375, 
1.703125, -134, 0, 7, -0.051116943359375, 
1.7109375, -194, 0, 7, -0.074005126953125, 
1.71875, -294, 0, 7, -0.112152099609375, 
1.7265625, -315, 0, 7, -0.120162963867188, 
1.734375, -247, 0, 7, -0.0942230224609375, 
1.7421875, -226, 2, 7, -0.086212158203125, 
1.75, -277, 0, 7, -0.105667114257813, 
1.7578125, -253, 0, 7, -0.0965118408203125, 
1.765625, -137, 0, 7, -0.0522613525390625, 
1.7734375, -69, 0, 7, -0.0263214111328125, 
1.78125, -92, 0, 7, -0.03509521484375, 
1.7890625, -100, 0, 7, -0.03814697265625, 
1.796875, -55, 0, 7, -0.0209808349609375, 
1.8046875, -34, 0, 7, -0.012969970703125, 
1.8125, -59, 0, 7, -0.0225067138671875, 
1.8203125, -49, 0, 7, -0.0186920166015625, 
1.828125, -4, 0, 7, -0.00152587890625, 
1.8359375, 35, 0, 7, 0.0133514404296875, 
1.84375, 49, 0, 7, 0.0186920166015625, 
1.8515625, 58, 0, 7, 0.022125244140625, 
1.859375, 118, 0, 7, 0.045013427734375, 
1.8671875, 205, 2, 7, 0.0782012939453125, 
1.875, 155, 0, 7, 0.0591278076171875, 
1.8828125, 8, 0, 7, 0.0030517578125, 
1.890625, -75, 0, 7, -0.0286102294921875, 
1.8984375, -100, 0, 7, -0.03814697265625, 
1.90625, -169, 0, 7, -0.0644683837890625, 
1.9140625, -328, 0, 7, -0.1251220703125, 
1.921875, -466, 0, 7, -0.177764892578125, 
1.9296875, -413, 0, 7, -0.157546997070313, 
1.9375, -236, 0, 7, -0.09002685546875, 
1.9453125, -189, 0, 7, -0.0720977783203125, 
1.953125, -261, 0, 7, -0.0995635986328125, 
1.9609375, -288, 0, 7, -0.10986328125, 
1.96875, -281, 0, 7, -0.107192993164063, 
1.9765625, -290, 0, 7, -0.110626220703125, 
1.984375, -281, 0, 7, -0.107192993164063, 
1.9921875, -242, 2, 7, -0.092315673828125, 
2, -167, 0, 7, -0.0637054443359375, 
2.0078125, -109, 0, 7, -0.0415802001953125, 
2.015625, -177, 0, 7, -0.0675201416015625, 
2.0234375, -281, 0, 7, -0.107192993164063, 
2.03125, -290, 0, 7, -0.110626220703125, 
2.0390625, -228, 0, 7, -0.08697509765625, 
2.046875, -148, 0, 7, -0.05645751953125, 
2.0546875, -116, 0, 7, -0.04425048828125, 
2.0625, -142, 0, 7, -0.054168701171875, 
2.0703125, -144, 0, 7, -0.054931640625, 
2.078125, -79, 0, 7, -0.0301361083984375, 
2.0859375, -21, 0, 7, -0.0080108642578125, 
2.09375, -63, 0, 7, -0.0240325927734375, 
2.1015625, -171, 0, 7, -0.0652313232421875, 
2.109375, -217, 0, 7, -0.0827789306640625, 
2.1171875, -188, 2, 7, -0.07171630859375, 
2.125, -144, 0, 7, -0.054931640625, 
2.1328125, -150, 0, 7, -0.057220458984375, 
2.140625, -170, 0, 7, -0.064849853515625, 
2.1484375, -93, 0, 7, -0.0354766845703125, 
2.15625, 10, 0, 7, 0.003814697265625, 
2.1640625, 13, 0, 7, 0.0049591064453125, 
2.171875, -37, 0, 7, -0.0141143798828125, 
2.1796875, -117, 0, 7, -0.0446319580078125, 
2.1875, -180, 0, 7, -0.06866455078125, 
2.1953125, -94, 0, 7, -0.035858154296875, 
2.203125, 75, 0, 7, 0.0286102294921875, 
2.2109375, 100, 0, 7, 0.03814697265625, 
2.21875, -25, 0, 7, -0.0095367431640625, 
2.2265625, -108, 0, 7, -0.04119873046875, 
2.234375, -85, 0, 7, -0.0324249267578125, 
2.2421875, -35, 2, 7, -0.0133514404296875, 
2.25, -9, 0, 7, -0.0034332275390625, 
2.2578125, 46, 0, 7, 0.017547607421875, 
2.265625, 146, 0, 7, 0.055694580078125, 
2.2734375, 155, 0, 7, 0.0591278076171875, 
2.28125, 6, 0, 7, 0.002288818359375, 
2.2890625, -69, 0, 7, -0.0263214111328125, 
2.296875, 51, 0, 7, 0.0194549560546875, 
2.3046875, 199, 0, 7, 0.0759124755859375, 
2.3125, 247, 0, 7, 0.0942230224609375, 
2.3203125, 217, 0, 7, 0.0827789306640625, 
2.328125, 161, 0, 7, 0.0614166259765625, 
2.3359375, 34, 0, 7, 0.012969970703125, 
2.34375, -110, 0, 7, -0.041961669921875, 
2.3515625, -88, 0, 7, -0.0335693359375, 
2.359375, 124, 0, 7, 0.04730224609375, 
2.3671875, 310, 2, 7, 0.118255615234375, 
2.375, 269, 0, 7, 0.102615356445313, 
2.3828125, 59, 0, 7, 0.0225067138671875, 
2.390625, -96, 0, 7, -0.03662109375, 
2.3984375, -33, 0, 7, -0.0125885009765625, 
2.40625, 205, 0, 7, 0.0782012939453125, 
2.4140625, 428, 0, 7, 0.16326904296875, 
2.421875, 424, 0, 7, 0.1617431640625, 
2.4296875, 159, 0, 7, 0.0606536865234375, 
2.4375, -124, 0, 7, -0.04730224609375, 
2.4453125, -240, 0, 7, -0.091552734375, 
2.453125, -194, 0, 7, -0.074005126953125, 
2.4609375, -51, 0, 7, -0.0194549560546875, 
2.46875, 89, 0, 7, 0.0339508056640625, 
2.4765625, 144, 0, 7, 0.054931640625, 
2.484375, 86, 0, 7, 0.032806396484375, 
2.4921875, 11, 2, 7, 0.0041961669921875, 
2.5, 16, 0, 7, 0.006103515625, 
2.5078125, 85, 0, 7, 0.0324249267578125, 
2.515625, 190, 0, 7, 0.072479248046875, 
2.5234375, 305, 0, 7, 0.116348266601563, 
2.53125, 378, 0, 7, 0.144195556640625, 
2.5390625, 309, 0, 7, 0.117874145507813, 
2.546875, 111, 0, 7, 0.0423431396484375, 
2.5546875, -10, 0, 7, -0.003814697265625, 
2.5625, 26, 0, 7, 0.009918212890625, 
2.5703125, 172, 0, 7, 0.06561279296875, 
2.578125, 329, 0, 7, 0.125503540039063, 
2.5859375, 395, 0, 7, 0.150680541992188, 
2.59375, 326, 0, 7, 0.124359130859375, 
2.6015625, 143, 0, 7, 0.0545501708984375, 
2.609375, 78, 0, 7, 0.029754638671875, 
2.6171875, 207, 2, 7, 0.0789642333984375, 
2.625, 336, 0, 7, 0.128173828125, 
2.6328125, 354, 0, 7, 0.135040283203125, 
2.640625, 325, 0, 7, 0.123977661132813, 
2.6484375, 332, 0, 7, 0.12664794921875, 
2.65625, 343, 0, 7, 0.130844116210938, 
2.6640625, 308, 0, 7, 0.11749267578125, 
2.671875, 247, 0, 7, 0.0942230224609375, 
2.6796875, 248, 0, 7, 0.0946044921875, 
2.6875, 383, 0, 7, 0.146102905273438, 
2.6953125, 546, 0, 7, 0.208282470703125, 
2.703125, 545, 0, 7, 0.207901000976563, 
2.7109375, 374, 0, 7, 0.142669677734375, 
2.71875, 176, 0, 7, 0.067138671875, 
2.7265625, 39, 0, 7, 0.0148773193359375, 
2.734375, 5, 0, 7, 0.0019073486328125, 
2.7421875, 32, 2, 7, 0.01220703125, 
2.75, 26, 0, 7, 0.009918212890625, 
2.7578125, -23, 0, 7, -0.0087738037109375, 
2.765625, -113, 0, 7, -0.0431060791015625, 
2.7734375, -208, 0, 7, -0.079345703125, 
2.78125, -252, 0, 7, -0.09613037109375, 
2.7890625, -204, 0, 7, -0.07781982421875, 
2.796875, -41, 0, 7, -0.0156402587890625, 
2.8046875, 107, 0, 7, 0.0408172607421875, 
2.8125, 104, 0, 7, 0.0396728515625, 
2.8203125, -49, 0, 7, -0.0186920166015625, 
2.828125, -202, 0, 7, -0.077056884765625, 
2.8359375, -224, 0, 7, -0.08544921875, 
2.84375, -206, 0, 7, -0.078582763671875, 
2.8515625, -171, 0, 7, -0.0652313232421875, 
2.859375, 8, 0, 7, 0.0030517578125, 
2.8671875, 237, 2, 7, 0.0904083251953125, 
2.875, 224, 0, 7, 0.08544921875, 
2.8828125, -85, 0, 7, -0.0324249267578125, 
2.890625, -315, 0, 7, -0.120162963867188, 
2.8984375, -239, 0, 7, -0.0911712646484375, 
2.90625, -12, 0, 7, -0.00457763671875, 
2.9140625, 165, 0, 7, 0.0629425048828125, 
2.921875, 170, 0, 7, 0.064849853515625, 
2.9296875, 19, 0, 7, 0.0072479248046875, 
2.9375, -136, 0, 7, -0.0518798828125, 
2.9453125, -190, 0, 7, -0.072479248046875, 
2.953125, -119, 0, 7, -0.0453948974609375, 
2.9609375, 7, 0, 7, 0.0026702880859375, 
2.96875, 48, 0, 7, 0.018310546875, 
2.9765625, -6, 0, 7, -0.002288818359375, 
2.984375, -34, 0, 7, -0.012969970703125, 
2.9921875, -37, 2, 7, -0.0141143798828125, 
3, -29, 0, 7, -0.0110626220703125, 
3.0078125, 13, 0, 7, 0.0049591064453125, 
3.015625, 34, 0, 7, 0.012969970703125, 
3.0234375, -40, 0, 7, -0.0152587890625, 
3.03125, -123, 0, 7, -0.0469207763671875, 
3.0390625, -97, 0, 7, -0.0370025634765625, 
3.046875, -47, 0, 7, -0.0179290771484375, 
3.0546875, -33, 0, 7, -0.0125885009765625, 
3.0625, -44, 0, 7, -0.01678466796875, 
3.0703125, -72, 0, 7, -0.0274658203125, 
3.078125, -73, 0, 7, -0.0278472900390625, 
3.0859375, -53, 0, 7, -0.0202178955078125, 
3.09375, -45, 0, 7, -0.0171661376953125, 
3.1015625, -14, 0, 7, -0.005340576171875, 
3.109375, 21, 0, 7, 0.0080108642578125, 
3.1171875, -35, 2, 7, -0.0133514404296875, 
3.125, -148, 0, 7, -0.05645751953125, 
3.1328125, -154, 0, 7, -0.058746337890625, 
3.140625, -33, 0, 7, -0.0125885009765625, 
3.1484375, 93, 0, 7, 0.0354766845703125, 
3.15625, 129, 0, 7, 0.0492095947265625, 
3.1640625, 34, 0, 7, 0.012969970703125, 
3.171875, -61, 0, 7, -0.0232696533203125, 
3.1796875, -42, 0, 7, -0.016021728515625, 
3.1875, -15, 0, 7, -0.0057220458984375, 
3.1953125, -53, 0, 7, -0.0202178955078125, 
3.203125, -105, 0, 7, -0.0400543212890625, 
3.2109375, -167, 0, 7, -0.0637054443359375, 
3.21875, -198, 0, 7, -0.075531005859375, 
3.2265625, -139, 0, 7, -0.0530242919921875, 
3.234375, -66, 0, 7, -0.025177001953125, 
3.2421875, -43, 2, 7, -0.0164031982421875, 
3.25, 22, 0, 7, 0.008392333984375, 
3.2578125, 110, 0, 7, 0.041961669921875, 
3.265625, 100, 0, 7, 0.03814697265625, 
3.2734375, -71, 0, 7, -0.0270843505859375, 
3.28125, -325, 0, 7, -0.123977661132813, 
3.2890625, -468, 0, 7, -0.17852783203125, 
3.296875, -408, 0, 7, -0.1556396484375, 
3.3046875, -258, 0, 7, -0.098419189453125, 
3.3125, -144, 0, 7, -0.054931640625, 
3.3203125, -80, 0, 7, -0.030517578125, 
3.328125, -82, 0, 7, -0.031280517578125, 
3.3359375, -113, 0, 7, -0.0431060791015625, 
3.34375, -72, 0, 7, -0.0274658203125, 
3.3515625, -9, 0, 7, -0.0034332275390625, 
3.359375, -21, 0, 7, -0.0080108642578125, 
3.3671875, -65, 2, 7, -0.0247955322265625, 
3.375, -48, 0, 7, -0.018310546875, 
3.3828125, 41, 0, 7, 0.0156402587890625, 
3.390625, 44, 0, 7, 0.01678466796875, 
3.3984375, -48, 0, 7, -0.018310546875, 
3.40625, -88, 0, 7, -0.0335693359375, 
3.4140625, -33, 0, 7, -0.0125885009765625, 
3.421875, 39, 0, 7, 0.0148773193359375, 
3.4296875, 55, 0, 7, 0.0209808349609375, 
3.4375, 11, 0, 7, 0.0041961669921875, 
3.4453125, -5, 0, 7, -0.0019073486328125, 
3.453125, 56, 0, 7, 0.0213623046875, 
3.4609375, 132, 0, 7, 0.05035400390625, 
3.46875, 147, 0, 7, 0.0560760498046875, 
3.4765625, 84, 0, 7, 0.03204345703125, 
3.484375, 41, 0, 7, 0.0156402587890625, 
3.4921875, 105, 2, 7, 0.0400543212890625, 
3.5, 203, 0, 7, 0.0774383544921875, 
3.5078125, 202, 0, 7, 0.077056884765625, 
3.515625, 129, 0, 7, 0.0492095947265625, 
3.5234375, 129, 0, 7, 0.0492095947265625, 
3.53125, 195, 0, 7, 0.0743865966796875, 
3.5390625, 255, 0, 7, 0.0972747802734375, 
3.546875, 279, 0, 7, 0.106430053710938, 
3.5546875, 246, 0, 7, 0.093841552734375, 
3.5625, 160, 0, 7, 0.06103515625, 
3.5703125, 21, 0, 7, 0.0080108642578125, 
3.578125, -147, 0, 7, -0.0560760498046875, 
3.5859375, -226, 0, 7, -0.086212158203125, 
3.59375, -186, 0, 7, -0.070953369140625, 
3.6015625, -175, 0, 7, -0.0667572021484375, 
3.609375, -258, 0, 7, -0.098419189453125, 
3.6171875, -334, 2, 7, -0.127410888671875, 
3.625, -326, 0, 7, -0.124359130859375, 
3.6328125, -244, 0, 7, -0.09307861328125, 
3.640625, -178, 0, 7, -0.067901611328125, 
3.6484375, -214, 0, 7, -0.081634521484375, 
3.65625, -280, 0, 7, -0.1068115234375, 
3.6640625, -304, 0, 7, -0.115966796875, 
3.671875, -263, 0, 7, -0.100326538085938, 
3.6796875, -175, 0, 7, -0.0667572021484375, 
3.6875, -126, 0, 7, -0.048065185546875, 
3.6953125, -121, 0, 7, -0.0461578369140625, 
3.703125, -130, 0, 7, -0.049591064453125, 
3.7109375, -111, 0, 7, -0.0423431396484375, 
3.71875, -101, 0, 7, -0.0385284423828125, 
3.7265625, -151, 0, 7, -0.0576019287109375, 
3.734375, -185, 0, 7, -0.0705718994140625, 
3.7421875, -158, 2, 7, -0.060272216796875, 
3.75, -152, 0, 7, -0.0579833984375, 
3.7578125, -186, 0, 7, -0.070953369140625, 
3.765625, -188, 0, 7, -0.07171630859375, 
3.7734375, -137, 0, 7, -0.0522613525390625, 
3.78125, -124, 0, 7, -0.04730224609375, 
3.7890625, -115, 0, 7, -0.0438690185546875, 
3.796875, -76, 0, 7, -0.02899169921875, 
3.8046875, -76, 0, 7, -0.02899169921875, 
3.8125, -126, 0, 7, -0.048065185546875, 
3.8203125, -165, 0, 7, -0.0629425048828125, 
3.828125, -154, 0, 7, -0.058746337890625, 
3.8359375, -121, 0, 7, -0.0461578369140625, 
3.84375, -123, 0, 7, -0.0469207763671875, 
3.8515625, -177, 0, 7, -0.0675201416015625, 
3.859375, -209, 0, 7, -0.0797271728515625, 
3.8671875, -188, 2, 7, -0.07171630859375, 
3.875, -116, 0, 7, -0.04425048828125, 
3.8828125, -6, 0, 7, -0.002288818359375, 
3.890625, 31, 0, 7, 0.0118255615234375, 
3.8984375, -42, 0, 7, -0.016021728515625, 
3.90625, -127, 0, 7, -0.0484466552734375, 
3.9140625, -130, 0, 7, -0.049591064453125, 
3.921875, -85, 0, 7, -0.0324249267578125, 
3.9296875, -56, 0, 7, -0.0213623046875, 
3.9375, -36, 0, 7, -0.01373291015625, 
3.9453125, -34, 0, 7, -0.012969970703125, 
3.953125, -69, 0, 7, -0.0263214111328125, 
3.9609375, -112, 0, 7, -0.042724609375, 
3.96875, -126, 0, 7, -0.048065185546875, 
3.9765625, -110, 0, 7, -0.041961669921875, 
3.984375, -136, 0, 7, -0.0518798828125, 
3.9921875, -185, 2, 7, -0.0705718994140625, 
4, -152, 0, 7, -0.0579833984375, 
4.0078125, -67, 0, 7, -0.0255584716796875, 
4.015625, -44, 0, 7, -0.01678466796875, 
4.0234375, -112, 0, 7, -0.042724609375, 
4.03125, -143, 0, 7, -0.0545501708984375, 
4.0390625, 10, 0, 7, 0.003814697265625, 
4.046875, 205, 0, 7, 0.0782012939453125, 
4.0546875, 119, 0, 7, 0.0453948974609375, 
4.0625, -268, 0, 7, -0.10223388671875, 
4.0703125, -555, 0, 7, -0.211715698242188, 
4.078125, -456, 0, 7, -0.1739501953125, 
4.0859375, -173, 0, 7, -0.0659942626953125, 
4.09375, -44, 0, 7, -0.01678466796875, 
4.1015625, -104, 0, 7, -0.0396728515625, 
4.109375, -156, 0, 7, -0.05950927734375, 
4.1171875, -96, 2, 7, -0.03662109375, 
4.125, -18, 0, 7, -0.006866455078125, 
4.1328125, 28, 0, 7, 0.01068115234375, 
4.140625, 27, 0, 7, 0.0102996826171875, 
4.1484375, -54, 0, 7, -0.020599365234375, 
4.15625, -134, 0, 7, -0.051116943359375, 
4.1640625, -85, 0, 7, -0.0324249267578125, 
4.171875, 54, 0, 7, 0.020599365234375, 
4.1796875, 136, 0, 7, 0.0518798828125, 
4.1875, 69, 0, 7, 0.0263214111328125, 
4.1953125, -77, 0, 7, -0.0293731689453125, 
4.203125, -152, 0, 7, -0.0579833984375, 
4.2109375, -83, 0, 7, -0.0316619873046875, 
4.21875, 52, 0, 7, 0.01983642578125, 
4.2265625, 123, 0, 7, 0.0469207763671875, 
4.234375, 70, 0, 7, 0.026702880859375, 
4.2421875, -79, 2, 7, -0.0301361083984375, 
4.25, -130, 0, 7, -0.049591064453125, 
4.2578125, 35, 0, 7, 0.0133514404296875, 
4.265625, 212, 0, 7, 0.08087158203125, 
4.2734375, 178, 0, 7, 0.067901611328125, 
4.28125, 54, 0, 7, 0.020599365234375, 
4.2890625, 65, 0, 7, 0.0247955322265625, 
4.296875, 228, 0, 7, 0.08697509765625, 
4.3046875, 381, 0, 7, 0.145339965820313, 
4.3125, 365, 0, 7, 0.139236450195313, 
4.3203125, 242, 0, 7, 0.092315673828125, 
4.328125, 142, 0, 7, 0.054168701171875, 
4.3359375, 77, 0, 7, 0.0293731689453125, 
4.34375, 80, 0, 7, 0.030517578125, 
4.3515625, 127, 0, 7, 0.0484466552734375, 
4.359375, 80, 0, 7, 0.030517578125, 
4.3671875, -116, 2, 7, -0.04425048828125, 
4.375, -295, 0, 7, -0.112533569335938, 
4.3828125, -298, 0, 7, -0.113677978515625, 
4.390625, -231, 0, 7, -0.0881195068359375, 
4.3984375, -226, 0, 7, -0.086212158203125, 
4.40625, -298, 0, 7, -0.113677978515625, 
4.4140625, -329, 0, 7, -0.125503540039063, 
4.421875, -268, 0, 7, -0.10223388671875, 
4.4296875, -204, 0, 7, -0.07781982421875, 
4.4375, -161, 0, 7, -0.0614166259765625, 
4.4453125, -175, 0, 7, -0.0667572021484375, 
4.453125, -242, 0, 7, -0.092315673828125, 
4.4609375, -263, 0, 7, -0.100326538085938, 
4.46875, -234, 0, 7, -0.089263916015625, 
4.4765625, -179, 0, 7, -0.0682830810546875, 
4.484375, -109, 0, 7, -0.0415802001953125, 
4.4921875, -50, 2, 7, -0.019073486328125, 
4.5, -14, 0, 7, -0.005340576171875, 
4.5078125, -39, 0, 7, -0.0148773193359375, 
4.515625, -129, 0, 7, -0.0492095947265625, 
4.5234375, -207, 0, 7, -0.0789642333984375, 
4.53125, -174, 0, 7, -0.066375732421875, 
4.5390625, -46, 0, 7, -0.017547607421875, 
4.546875, 41, 0, 7, 0.0156402587890625, 
4.5546875, 56, 0, 7, 0.0213623046875, 
4.5625, 48, 0, 7, 0.018310546875, 
4.5703125, 31, 0, 7, 0.0118255615234375, 
4.578125, -28, 0, 7, -0.01068115234375, 
4.5859375, -132, 0, 7, -0.05035400390625, 
4.59375, -184, 0, 7, -0.0701904296875, 
4.6015625, -106, 0, 7, -0.040435791015625, 
4.609375, 44, 0, 7, 0.01678466796875, 
4.6171875, 75, 2, 7, 0.0286102294921875, 
4.625, -35, 0, 7, -0.0133514404296875, 
4.6328125, -45, 0, 7, -0.0171661376953125, 
4.640625, 114, 0, 7, 0.043487548828125, 
4.6484375, 194, 0, 7, 0.074005126953125, 
4.65625, 29, 0, 7, 0.0110626220703125, 
4.6640625, -167, 0, 7, -0.0637054443359375, 
4.671875, -142, 0, 7, -0.054168701171875, 
4.6796875, 36, 0, 7, 0.01373291015625, 
4.6875, 118, 0, 7, 0.045013427734375, 
4.6953125, 49, 0, 7, 0.0186920166015625, 
4.703125, 40, 0, 7, 0.0152587890625, 
4.7109375, 114, 0, 7, 0.043487548828125, 
4.71875, 116, 0, 7, 0.04425048828125, 
4.7265625, 42, 0, 7, 0.016021728515625, 
4.734375, 0, 0, 7, 0, 
4.7421875, 44, 2, 7, 0.01678466796875, 
4.75, 103, 0, 7, 0.0392913818359375, 
4.7578125, 118, 0, 7, 0.045013427734375, 
4.765625, 91, 0, 7, 0.0347137451171875, 
4.7734375, 72, 0, 7, 0.0274658203125, 
4.78125, 80, 0, 7, 0.030517578125, 
4.7890625, 61, 0, 7, 0.0232696533203125, 
4.796875, 16, 0, 7, 0.006103515625, 
4.8046875, 4, 0, 7, 0.00152587890625, 
4.8125, 28, 0, 7, 0.01068115234375, 
4.8203125, 32, 0, 7, 0.01220703125, 
4.828125, -2, 0, 7, -0.000762939453125, 
4.8359375, -12, 0, 7, -0.00457763671875, 
4.84375, 44, 0, 7, 0.01678466796875, 
4.8515625, 157, 0, 7, 0.0598907470703125, 
4.859375, 225, 0, 7, 0.0858306884765625, 
4.8671875, 183, 2, 7, 0.0698089599609375, 
4.875, 29, 0, 7, 0.0110626220703125, 
4.8828125, -170, 0, 7, -0.064849853515625, 
4.890625, -280, 0, 7, -0.1068115234375, 
4.8984375, -250, 0, 7, -0.095367431640625, 
4.90625, -112, 0, 7, -0.042724609375, 
4.9140625, 66, 0, 7, 0.025177001953125, 
4.921875, 169, 0, 7, 0.0644683837890625, 
4.9296875, 100, 0, 7, 0.03814697265625, 
4.9375, -52, 0, 7, -0.01983642578125, 
4.9453125, -81, 0, 7, -0.0308990478515625, 
4.953125, 34, 0, 7, 0.012969970703125, 
4.9609375, 138, 0, 7, 0.052642822265625, 
4.96875, 124, 0, 7, 0.04730224609375, 
4.9765625, 54, 0, 7, 0.020599365234375, 
4.984375, 51, 0, 7, 0.0194549560546875, 
4.9921875, 116, 2, 7, 0.04425048828125, 
5, 155, 0, 7, 0.0591278076171875, 
5.0078125, 170, 0, 7, 0.064849853515625, 
5.015625, 172, 0, 7, 0.06561279296875, 
5.0234375, 133, 0, 7, 0.0507354736328125, 
5.03125, 78, 0, 7, 0.029754638671875, 
5.0390625, 73, 0, 7, 0.0278472900390625, 
5.046875, 113, 0, 7, 0.0431060791015625, 
5.0546875, 144, 0, 7, 0.054931640625, 
5.0625, 140, 0, 7, 0.05340576171875, 
5.0703125, 140, 0, 7, 0.05340576171875, 
5.078125, 190, 0, 7, 0.072479248046875, 
5.0859375, 264, 0, 7, 0.1007080078125, 
5.09375, 264, 0, 7, 0.1007080078125, 
5.1015625, 269, 0, 7, 0.102615356445313, 
5.109375, 330, 0, 7, 0.125885009765625, 
5.1171875, 350, 2, 7, 0.133514404296875, 
5.125, 354, 0, 7, 0.135040283203125, 
5.1328125, 326, 0, 7, 0.124359130859375, 
5.140625, 279, 0, 7, 0.106430053710938, 
5.1484375, 280, 0, 7, 0.1068115234375, 
5.15625, 272, 0, 7, 0.103759765625, 
5.1640625, 231, 0, 7, 0.0881195068359375, 
5.171875, 144, 0, 7, 0.054931640625, 
5.1796875, 40, 0, 7, 0.0152587890625, 
5.1875, -32, 0, 7, -0.01220703125, 
5.1953125, -23, 0, 7, -0.0087738037109375, 
5.203125, -1, 0, 7, -0.0003814697265625, 
5.2109375, -82, 0, 7, -0.031280517578125, 
5.21875, -149, 0, 7, -0.0568389892578125, 
5.2265625, -146, 0, 7, -0.055694580078125, 
5.234375, -144, 0, 7, -0.054931640625, 
5.2421875, -162, 2, 7, -0.061798095703125, 
5.25, -210, 0, 7, -0.080108642578125, 
5.2578125, -162, 0, 7, -0.061798095703125, 
5.265625, -20, 0, 7, -0.00762939453125, 
5.2734375, 34, 0, 7, 0.012969970703125, 
5.28125, -1, 0, 7, -0.0003814697265625, 
5.2890625, -36, 0, 7, -0.01373291015625, 
5.296875, 25, 0, 7, 0.0095367431640625, 
5.3046875, 133, 0, 7, 0.0507354736328125, 
5.3125, 89, 0, 7, 0.0339508056640625, 
5.3203125, -107, 0, 7, -0.0408172607421875, 
5.328125, -209, 0, 7, -0.0797271728515625, 
5.3359375, -113, 0, 7, -0.0431060791015625, 
5.34375, 36, 0, 7, 0.01373291015625, 
5.3515625, 118, 0, 7, 0.045013427734375, 
5.359375, 113, 0, 7, 0.0431060791015625, 
5.3671875, 66, 2, 7, 0.025177001953125, 
5.375, 92, 0, 7, 0.03509521484375, 
5.3828125, 167, 0, 7, 0.0637054443359375, 
5.390625, 133, 0, 7, 0.0507354736328125, 
5.3984375, -11, 0, 7, -0.0041961669921875, 
5.40625, -153, 0, 7, -0.0583648681640625, 
5.4140625, -143, 0, 7, -0.0545501708984375, 
5.421875, 45, 0, 7, 0.0171661376953125, 
5.4296875, 168, 0, 7, 0.0640869140625, 
5.4375, 82, 0, 7, 0.031280517578125, 
5.4453125, -24, 0, 7, -0.0091552734375, 
5.453125, 30, 0, 7, 0.011444091796875, 
5.4609375, 124, 0, 7, 0.04730224609375, 
5.46875, 101, 0, 7, 0.0385284423828125, 
5.4765625, 64, 0, 7, 0.0244140625, 
5.484375, 80, 0, 7, 0.030517578125, 
5.4921875, 77, 2, 7, 0.0293731689453125, 
5.5, 23, 0, 7, 0.0087738037109375, 
5.5078125, -20, 0, 7, -0.00762939453125, 
5.515625, 32, 0, 7, 0.01220703125, 
5.5234375, 126, 0, 7, 0.048065185546875, 
5.53125, 144, 0, 7, 0.054931640625, 
5.5390625, 67, 0, 7, 0.0255584716796875, 
5.546875, 12, 0, 7, 0.00457763671875, 
5.5546875, 33, 0, 7, 0.0125885009765625, 
5.5625, 64, 0, 7, 0.0244140625, 
5.5703125, 98, 0, 7, 0.037384033203125, 
5.578125, 120, 0, 7, 0.0457763671875, 
5.5859375, 100, 0, 7, 0.03814697265625, 
5.59375, 84, 0, 7, 0.03204345703125, 
5.6015625, 100, 0, 7, 0.03814697265625, 
5.609375, 135, 0, 7, 0.0514984130859375, 
5.6171875, 114, 2, 7, 0.043487548828125, 
5.625, 26, 0, 7, 0.009918212890625, 
5.6328125, -16, 0, 7, -0.006103515625, 
5.640625, 94, 0, 7, 0.035858154296875, 
5.6484375, 266, 0, 7, 0.101470947265625, 
5.65625, 300, 0, 7, 0.11444091796875, 
5.6640625, 172, 0, 7, 0.06561279296875, 
5.671875, 36, 0, 7, 0.01373291015625, 
5.6796875, 10, 0, 7, 0.003814697265625, 
5.6875, 88, 0, 7, 0.0335693359375, 
5.6953125, 170, 0, 7, 0.064849853515625, 
5.703125, 131, 0, 7, 0.0499725341796875, 
5.7109375, 3, 0, 7, 0.0011444091796875, 
5.71875, -9, 0, 7, -0.0034332275390625, 
5.7265625, 70, 0, 7, 0.026702880859375, 
5.734375, 99, 0, 7, 0.0377655029296875, 
5.7421875, 155, 2, 7, 0.0591278076171875, 
5.75, 329, 0, 7, 0.125503540039063, 
5.7578125, 555, 0, 7, 0.211715698242188, 
5.765625, 502, 0, 7, 0.191497802734375, 
5.7734375, 53, 0, 7, 0.0202178955078125, 
5.78125, -337, 0, 7, -0.128555297851563, 
5.7890625, -261, 0, 7, -0.0995635986328125, 
5.796875, 54, 0, 7, 0.020599365234375, 
5.8046875, 199, 0, 7, 0.0759124755859375, 
5.8125, 173, 0, 7, 0.0659942626953125, 
5.8203125, 123, 0, 7, 0.0469207763671875, 
5.828125, 62, 0, 7, 0.023651123046875, 
5.8359375, 70, 0, 7, 0.026702880859375, 
5.84375, 140, 0, 7, 0.05340576171875, 
5.8515625, 240, 0, 7, 0.091552734375, 
5.859375, 321, 0, 7, 0.122451782226563, 
5.8671875, 290, 2, 7, 0.110626220703125, 
5.875, 198, 0, 7, 0.075531005859375, 
5.8828125, 197, 0, 7, 0.0751495361328125, 
5.890625, 285, 0, 7, 0.108718872070313, 
5.8984375, 372, 0, 7, 0.14190673828125, 
5.90625, 376, 0, 7, 0.1434326171875, 
5.9140625, 293, 0, 7, 0.111770629882813, 
5.921875, 223, 0, 7, 0.0850677490234375, 
5.9296875, 222, 0, 7, 0.084686279296875, 
5.9375, 260, 0, 7, 0.09918212890625, 
5.9453125, 315, 0, 7, 0.120162963867188, 
5.953125, 368, 0, 7, 0.140380859375, 
5.9609375, 424, 0, 7, 0.1617431640625, 
5.96875, 443, 0, 7, 0.168991088867188, 
5.9765625, 393, 0, 7, 0.149917602539063, 
5.984375, 324, 0, 7, 0.12359619140625, 
5.9921875, 341, 2, 7, 0.130081176757813, 
6, 454, 0, 7, 0.173187255859375, 
6.0078125, 557, 0, 7, 0.212478637695313, 
6.015625, 564, 0, 7, 0.21514892578125, 
6.0234375, 483, 0, 7, 0.184249877929688, 
6.03125, 400, 0, 7, 0.152587890625, 
6.0390625, 437, 0, 7, 0.166702270507813, 
6.046875, 504, 0, 7, 0.1922607421875, 
6.0546875, 468, 0, 7, 0.17852783203125, 
6.0625, 421, 0, 7, 0.160598754882813, 
6.0703125, 394, 0, 7, 0.150299072265625, 
6.078125, 312, 0, 7, 0.1190185546875, 
6.0859375, 176, 0, 7, 0.067138671875, 
6.09375, 32, 0, 7, 0.01220703125, 
6.1015625, -22, 0, 7, -0.008392333984375, 
6.109375, -3, 0, 7, -0.0011444091796875, 
6.1171875, 15, 2, 7, 0.0057220458984375, 
6.125, -19, 0, 7, -0.0072479248046875, 
6.1328125, -65, 0, 7, -0.0247955322265625, 
6.140625, -49, 0, 7, -0.0186920166015625, 
6.1484375, 9, 0, 7, 0.0034332275390625, 
6.15625, 51, 0, 7, 0.0194549560546875, 
6.1640625, 16, 0, 7, 0.006103515625, 
6.171875, -72, 0, 7, -0.0274658203125, 
6.1796875, -58, 0, 7, -0.022125244140625, 
6.1875, 14, 0, 7, 0.005340576171875, 
6.1953125, 35, 0, 7, 0.0133514404296875, 
6.203125, 22, 0, 7, 0.008392333984375, 
6.2109375, 37, 0, 7, 0.0141143798828125, 
6.21875, 87, 0, 7, 0.0331878662109375, 
6.2265625, 45, 0, 7, 0.0171661376953125, 
6.234375, -90, 0, 7, -0.034332275390625, 
6.2421875, -162, 2, 7, -0.061798095703125, 
6.25, -108, 0, 7, -0.04119873046875, 
6.2578125, -11, 0, 7, -0.0041961669921875, 
6.265625, 20, 0, 7, 0.00762939453125, 
6.2734375, -21, 0, 7, -0.0080108642578125, 
6.28125, -56, 0, 7, -0.0213623046875, 
6.2890625, -37, 0, 7, -0.0141143798828125, 
6.296875, -27, 0, 7, -0.0102996826171875, 
6.3046875, -96, 0, 7, -0.03662109375, 
6.3125, -201, 0, 7, -0.0766754150390625, 
6.3203125, -218, 0, 7, -0.083160400390625, 
6.328125, -121, 0, 7, -0.0461578369140625, 
6.3359375, -34, 0, 7, -0.012969970703125, 
6.34375, -73, 0, 7, -0.0278472900390625, 
6.3515625, -163, 0, 7, -0.0621795654296875, 
6.359375, -181, 0, 7, -0.0690460205078125, 
6.3671875, -180, 2, 7, -0.06866455078125, 
6.375, -173, 0, 7, -0.0659942626953125, 
6.3828125, -117, 0, 7, -0.0446319580078125, 
6.390625, -78, 0, 7, -0.029754638671875, 
6.3984375, -119, 0, 7, -0.0453948974609375, 
6.40625, -235, 0, 7, -0.0896453857421875, 
6.4140625, -309, 0, 7, -0.117874145507813, 
6.421875, -231, 0, 7, -0.0881195068359375, 
6.4296875, -146, 0, 7, -0.055694580078125, 
6.4375, -172, 0, 7, -0.06561279296875, 
6.4453125, -202, 0, 7, -0.077056884765625, 
6.453125, -175, 0, 7, -0.0667572021484375, 
6.4609375, -181, 0, 7, -0.0690460205078125, 
6.46875, -268, 0, 7, -0.10223388671875, 
6.4765625, -316, 0, 7, -0.12054443359375, 
6.484375, -259, 0, 7, -0.0988006591796875, 
6.4921875, -137, 2, 7, -0.0522613525390625, 
6.5, -114, 0, 7, -0.043487548828125, 
6.5078125, -219, 0, 7, -0.0835418701171875, 
6.515625, -267, 0, 7, -0.101852416992188, 
6.5234375, -198, 0, 7, -0.075531005859375, 
6.53125, -117, 0, 7, -0.0446319580078125, 
6.5390625, -154, 0, 7, -0.058746337890625, 
6.546875, -302, 0, 7, -0.115203857421875, 
6.5546875, -384, 0, 7, -0.146484375, 
6.5625, -341, 0, 7, -0.130081176757813, 
6.5703125, -310, 0, 7, -0.118255615234375, 
6.578125, -403, 0, 7, -0.153732299804688, 
6.5859375, -509, 0, 7, -0.194168090820313, 
6.59375, -494, 0, 7, -0.188446044921875, 
6.6015625, -391, 0, 7, -0.149154663085938, 
6.609375, -288, 0, 7, -0.10986328125, 
6.6171875, -243, 2, 7, -0.0926971435546875, 
6.625, -237, 0, 7, -0.0904083251953125, 
6.6328125, -332, 0, 7, -0.12664794921875, 
6.640625, -599, 0, 7, -0.228500366210938, 
6.6484375, -832, 0, 7, -0.3173828125, 
6.65625, -858, 0, 7, -0.327301025390625, 
6.6640625, -742, 0, 7, -0.283050537109375, 
6.671875, -652, 0, 7, -0.24871826171875, 
6.6796875, -603, 0, 7, -0.230026245117188, 
6.6875, -499, 0, 7, -0.190353393554688, 
6.6953125, -413, 0, 7, -0.157546997070313, 
6.703125, -432, 0, 7, -0.164794921875, 
6.7109375, -511, 0, 7, -0.194931030273438, 
6.71875, -528, 0, 7, -0.201416015625, 
6.7265625, -476, 0, 7, -0.18157958984375, 
6.734375, -460, 0, 7, -0.17547607421875, 
6.7421875, -463, 2, 7, -0.176620483398438, 
6.75, -415, 0, 7, -0.158309936523438, 
6.7578125, -330, 0, 7, -0.125885009765625, 
6.765625, -324, 0, 7, -0.12359619140625, 
6.7734375, -423, 0, 7, -0.161361694335938, 
6.78125, -501, 0, 7, -0.191116333007813, 
6.7890625, -487, 0, 7, -0.185775756835938, 
6.796875, -452, 0, 7, -0.17242431640625, 
6.8046875, -447, 0, 7, -0.170516967773438, 
6.8125, -476, 0, 7, -0.18157958984375, 
6.8203125, -476, 0, 7, -0.18157958984375, 
6.828125, -395, 0, 7, -0.150680541992188, 
6.8359375, -290, 0, 7, -0.110626220703125, 
6.84375, -274, 0, 7, -0.104522705078125, 
6.8515625, -328, 0, 7, -0.1251220703125, 
6.859375, -332, 0, 7, -0.12664794921875, 
6.8671875, -261, 2, 7, -0.0995635986328125, 
6.875, -219, 0, 7, -0.0835418701171875, 
6.8828125, -258, 0, 7, -0.098419189453125, 
6.890625, -299, 0, 7, -0.114059448242188, 
6.8984375, -259, 0, 7, -0.0988006591796875, 
6.90625, -186, 0, 7, -0.070953369140625, 
6.9140625, -175, 0, 7, -0.0667572021484375, 
6.921875, -222, 0, 7, -0.084686279296875, 
6.9296875, -244, 0, 7, -0.09307861328125, 
6.9375, -285, 0, 7, -0.108718872070313, 
6.9453125, -402, 0, 7, -0.153350830078125, 
6.953125, -502, 0, 7, -0.191497802734375, 
6.9609375, -558, 0, 7, -0.212860107421875, 
6.96875, -595, 0, 7, -0.226974487304688, 
6.9765625, -590, 0, 7, -0.225067138671875, 
6.984375, -565, 0, 7, -0.215530395507813, 
6.9921875, -570, 2, 7, -0.217437744140625, 
7, -619, 0, 7, -0.236129760742188, 
7.0078125, -639, 0, 7, -0.243759155273438, 
7.015625, -595, 0, 7, -0.226974487304688, 
7.0234375, -481, 0, 7, -0.183486938476563, 
7.03125, -441, 0, 7, -0.168228149414063, 
7.0390625, -527, 0, 7, -0.201034545898438, 
7.046875, -543, 0, 7, -0.207138061523438, 
7.0546875, -469, 0, 7, -0.178909301757813, 
7.0625, -407, 0, 7, -0.155258178710938, 
7.0703125, -394, 0, 7, -0.150299072265625, 
7.078125, -476, 0, 7, -0.18157958984375, 
7.0859375, -557, 0, 7, -0.212478637695313, 
7.09375, -528, 0, 7, -0.201416015625, 
7.1015625, -385, 0, 7, -0.146865844726563, 
7.109375, -257, 0, 7, -0.0980377197265625, 
7.1171875, -236, 2, 7, -0.09002685546875, 
7.125, -278, 0, 7, -0.106048583984375, 
7.1328125, -328, 0, 7, -0.1251220703125, 
7.140625, -315, 0, 7, -0.120162963867188, 
7.1484375, -326, 0, 7, -0.124359130859375, 
7.15625, -394, 0, 7, -0.150299072265625, 
7.1640625, -407, 0, 7, -0.155258178710938, 
7.171875, -391, 0, 7, -0.149154663085938, 
7.1796875, -346, 0, 7, -0.131988525390625, 
7.1875, -259, 0, 7, -0.0988006591796875, 
7.1953125, -177, 0, 7, -0.0675201416015625, 
7.203125, -145, 0, 7, -0.0553131103515625, 
7.2109375, -175, 0, 7, -0.0667572021484375, 
7.21875, -212, 0, 7, -0.08087158203125, 
7.2265625, -226, 0, 7, -0.086212158203125, 
7.234375, -239, 0, 7, -0.0911712646484375, 
7.2421875, -282, 2, 7, -0.107574462890625, 
7.25, -294, 0, 7, -0.112152099609375, 
7.2578125, -225, 0, 7, -0.0858306884765625, 
7.265625, -171, 0, 7, -0.0652313232421875, 
7.2734375, -174, 0, 7, -0.066375732421875, 
7.28125, -154, 0, 7, -0.058746337890625, 
7.2890625, -74, 0, 7, -0.028228759765625, 
7.296875, -20, 0, 7, -0.00762939453125, 
7.3046875, -73, 0, 7, -0.0278472900390625, 
7.3125, -168, 0, 7, -0.0640869140625, 
7.3203125, -177, 0, 7, -0.0675201416015625, 
7.328125, -130, 0, 7, -0.049591064453125, 
7.3359375, -118, 0, 7, -0.045013427734375, 
7.34375, -173, 0, 7, -0.0659942626953125, 
7.3515625, -204, 0, 7, -0.07781982421875, 
7.359375, -192, 0, 7, -0.0732421875, 
7.3671875, -201, 2, 7, -0.0766754150390625, 
7.375, -234, 0, 7, -0.089263916015625, 
7.3828125, -269, 0, 7, -0.102615356445313, 
7.390625, -193, 0, 7, -0.0736236572265625, 
7.3984375, 46, 0, 7, 0.017547607421875, 
7.40625, 224, 0, 7, 0.08544921875, 
7.4140625, 86, 0, 7, 0.032806396484375, 
7.421875, -277, 0, 7, -0.105667114257813, 
7.4296875, -476, 0, 7, -0.18157958984375, 
7.4375, -403, 0, 7, -0.153732299804688, 
7.4453125, -260, 0, 7, -0.09918212890625, 
7.453125, -217, 0, 7, -0.0827789306640625, 
7.4609375, -222, 0, 7, -0.084686279296875, 
7.46875, -110, 0, 7, -0.041961669921875, 
7.4765625, 8, 0, 7, 0.0030517578125, 
7.484375, -39, 0, 7, -0.0148773193359375, 
7.4921875, -140, 2, 7, -0.05340576171875, 
7.5, -169, 0, 7, -0.0644683837890625, 
7.5078125, -95, 0, 7, -0.0362396240234375, 
7.515625, 15, 0, 7, 0.0057220458984375, 
7.5234375, 112, 0, 7, 0.042724609375, 
7.53125, 107, 0, 7, 0.0408172607421875, 
7.5390625, 24, 0, 7, 0.0091552734375, 
7.546875, -37, 0, 7, -0.0141143798828125, 
7.5546875, -81, 0, 7, -0.0308990478515625, 
7.5625, -41, 0, 7, -0.0156402587890625, 
7.5703125, 71, 0, 7, 0.0270843505859375, 
7.578125, 125, 0, 7, 0.0476837158203125, 
7.5859375, 64, 0, 7, 0.0244140625, 
7.59375, -35, 0, 7, -0.0133514404296875, 
7.6015625, -48, 0, 7, -0.018310546875, 
7.609375, 9, 0, 7, 0.0034332275390625, 
7.6171875, 93, 2, 7, 0.0354766845703125, 
7.625, 193, 0, 7, 0.0736236572265625, 
7.6328125, 258, 0, 7, 0.098419189453125, 
7.640625, 254, 0, 7, 0.096893310546875, 
7.6484375, 142, 0, 7, 0.054168701171875, 
7.65625, 50, 0, 7, 0.019073486328125, 
7.6640625, 125, 0, 7, 0.0476837158203125, 
7.671875, 260, 0, 7, 0.09918212890625, 
7.6796875, 281, 0, 7, 0.107192993164063, 
7.6875, 206, 0, 7, 0.078582763671875, 
7.6953125, 171, 0, 7, 0.0652313232421875, 
7.703125, 162, 0, 7, 0.061798095703125, 
7.7109375, 82, 0, 7, 0.031280517578125, 
7.71875, 11, 0, 7, 0.0041961669921875, 
7.7265625, 22, 0, 7, 0.008392333984375, 
7.734375, 12, 0, 7, 0.00457763671875, 
7.7421875, -145, 2, 7, -0.0553131103515625, 
7.75, -388, 0, 7, -0.14801025390625, 
7.7578125, -446, 0, 7, -0.170135498046875, 
7.765625, -293, 0, 7, -0.111770629882813, 
7.7734375, -200, 0, 7, -0.0762939453125, 
7.78125, -278, 0, 7, -0.106048583984375, 
7.7890625, -370, 0, 7, -0.141143798828125, 
7.796875, -302, 0, 7, -0.115203857421875, 
7.8046875, -160, 0, 7, -0.06103515625, 
7.8125, -131, 0, 7, -0.0499725341796875, 
7.8203125, -221, 0, 7, -0.0843048095703125, 
7.828125, -287, 0, 7, -0.109481811523438, 
7.8359375, -220, 0, 7, -0.08392333984375, 
7.84375, -126, 0, 7, -0.048065185546875, 
7.8515625, -96, 0, 7, -0.03662109375, 
7.859375, -133, 0, 7, -0.0507354736328125, 
7.8671875, -183, 2, 7, -0.0698089599609375, 
7.875, -134, 0, 7, -0.051116943359375, 
7.8828125, -75, 0, 7, -0.0286102294921875, 
7.890625, -98, 0, 7, -0.037384033203125, 
7.8984375, -132, 0, 7, -0.05035400390625, 
7.90625, -136, 0, 7, -0.0518798828125, 
7.9140625, -105, 0, 7, -0.0400543212890625, 
7.921875, -64, 0, 7, -0.0244140625, 
7.9296875, -45, 0, 7, -0.0171661376953125, 
7.9375, -60, 0, 7, -0.02288818359375, 
7.9453125, -62, 0, 7, -0.023651123046875, 
7.953125, -36, 0, 7, -0.01373291015625, 
7.9609375, -51, 0, 7, -0.0194549560546875, 
7.96875, -80, 0, 7, -0.030517578125, 
7.9765625, -63, 0, 7, -0.0240325927734375, 
7.984375, -58, 0, 7, -0.022125244140625, 
7.9921875, -69, 2, 7, -0.0263214111328125, 
8, -49, 0, 7, -0.0186920166015625, 
8.0078125, -28, 0, 7, -0.01068115234375, 
8.015625, -32, 0, 7, -0.01220703125, 
8.0234375, -75, 0, 7, -0.0286102294921875, 
8.03125, -112, 0, 7, -0.042724609375, 
8.0390625, -59, 0, 7, -0.0225067138671875, 
8.046875, 12, 0, 7, 0.00457763671875, 
8.0546875, 24, 0, 7, 0.0091552734375, 
8.0625, -34, 0, 7, -0.012969970703125, 
8.0703125, -97, 0, 7, -0.0370025634765625, 
8.078125, -86, 0, 7, -0.032806396484375, 
8.0859375, -21, 0, 7, -0.0080108642578125, 
8.09375, 71, 0, 7, 0.0270843505859375, 
8.1015625, 101, 0, 7, 0.0385284423828125, 
8.109375, 19, 0, 7, 0.0072479248046875, 
8.1171875, -87, 2, 7, -0.0331878662109375, 
8.125, -125, 0, 7, -0.0476837158203125, 
8.1328125, -41, 0, 7, -0.0156402587890625, 
8.140625, 65, 0, 7, 0.0247955322265625, 
8.1484375, 103, 0, 7, 0.0392913818359375, 
8.15625, 95, 0, 7, 0.0362396240234375, 
8.1640625, 34, 0, 7, 0.012969970703125, 
8.171875, -15, 0, 7, -0.0057220458984375, 
8.1796875, -44, 0, 7, -0.01678466796875, 
8.1875, -92, 0, 7, -0.03509521484375, 
8.1953125, -102, 0, 7, -0.038909912109375, 
8.203125, -87, 0, 7, -0.0331878662109375, 
8.2109375, -106, 0, 7, -0.040435791015625, 
8.21875, -94, 0, 7, -0.035858154296875, 
8.2265625, -49, 0, 7, -0.0186920166015625, 
8.234375, -4, 0, 7, -0.00152587890625, 
8.2421875, 63, 2, 7, 0.0240325927734375, 
8.25, 105, 0, 7, 0.0400543212890625, 
8.2578125, 39, 0, 7, 0.0148773193359375, 
8.265625, -148, 0, 7, -0.05645751953125, 
8.2734375, -327, 0, 7, -0.124740600585938, 
8.28125, -381, 0, 7, -0.145339965820313, 
8.2890625, -286, 0, 7, -0.109100341796875, 
8.296875, -149, 0, 7, -0.0568389892578125, 
8.3046875, -92, 0, 7, -0.03509521484375, 
8.3125, -55, 0, 7, -0.0209808349609375, 
8.3203125, -41, 0, 7, -0.0156402587890625, 
8.328125, -89, 0, 7, -0.0339508056640625, 
8.3359375, -95, 0, 7, -0.0362396240234375, 
8.34375, -17, 0, 7, -0.0064849853515625, 
8.3515625, 74, 0, 7, 0.028228759765625, 
8.359375, 100, 0, 7, 0.03814697265625, 
8.3671875, 52, 2, 7, 0.01983642578125, 
8.375, -7, 0, 7, -0.0026702880859375, 
8.3828125, -11, 0, 7, -0.0041961669921875, 
8.390625, 44, 0, 7, 0.01678466796875, 
8.3984375, 77, 0, 7, 0.0293731689453125, 
8.40625, 39, 0, 7, 0.0148773193359375, 
8.4140625, -23, 0, 7, -0.0087738037109375, 
8.421875, -17, 0, 7, -0.0064849853515625, 
8.4296875, 68, 0, 7, 0.02593994140625, 
8.4375, 143, 0, 7, 0.0545501708984375, 
8.4453125, 107, 0, 7, 0.0408172607421875, 
8.453125, 7, 0, 7, 0.0026702880859375, 
8.4609375, 1, 0, 7, 0.0003814697265625, 
8.46875, 108, 0, 7, 0.04119873046875, 
8.4765625, 199, 0, 7, 0.0759124755859375, 
8.484375, 146, 0, 7, 0.055694580078125, 
8.4921875, 58, 2, 7, 0.022125244140625, 
8.5, 149, 0, 7, 0.0568389892578125, 
8.5078125, 365, 0, 7, 0.139236450195313, 
8.515625, 425, 0, 7, 0.162124633789063, 
8.5234375, 231, 0, 7, 0.0881195068359375, 
8.53125, 14, 0, 7, 0.005340576171875, 
8.5390625, 10, 0, 7, 0.003814697265625, 
8.546875, 142, 0, 7, 0.054168701171875, 
8.5546875, 217, 0, 7, 0.0827789306640625, 
8.5625, 175, 0, 7, 0.0667572021484375, 
8.5703125, 60, 0, 7, 0.02288818359375, 
8.578125, -105, 0, 7, -0.0400543212890625, 
8.5859375, -249, 0, 7, -0.0949859619140625, 
8.59375, -268, 0, 7, -0.10223388671875, 
8.6015625, -216, 0, 7, -0.0823974609375, 
8.609375, -190, 0, 7, -0.072479248046875, 
8.6171875, -192, 2, 7, -0.0732421875, 
8.625, -165, 0, 7, -0.0629425048828125, 
8.6328125, -122, 0, 7, -0.046539306640625, 
8.640625, -123, 0, 7, -0.0469207763671875, 
8.6484375, -209, 0, 7, -0.0797271728515625, 
8.65625, -243, 0, 7, -0.0926971435546875, 
8.6640625, -141, 0, 7, -0.0537872314453125, 
8.671875, -64, 0, 7, -0.0244140625, 
8.6796875, -73, 0, 7, -0.0278472900390625, 
8.6875, -93, 0, 7, -0.0354766845703125, 
8.6953125, -131, 0, 7, -0.0499725341796875, 
8.703125, -138, 0, 7, -0.052642822265625, 
8.7109375, -92, 0, 7, -0.03509521484375, 
8.71875, -82, 0, 7, -0.031280517578125, 
8.7265625, -156, 0, 7, -0.05950927734375, 
8.734375, -189, 0, 7, -0.0720977783203125, 
8.7421875, -109, 2, 7, -0.0415802001953125, 
8.75, -2, 0, 7, -0.000762939453125, 
8.7578125, 40, 0, 7, 0.0152587890625, 
8.765625, -19, 0, 7, -0.0072479248046875, 
8.7734375, -93, 0, 7, -0.0354766845703125, 
8.78125, -63, 0, 7, -0.0240325927734375, 
8.7890625, -34, 0, 7, -0.012969970703125, 
8.796875, -89, 0, 7, -0.0339508056640625, 
8.8046875, -118, 0, 7, -0.045013427734375, 
8.8125, -75, 0, 7, -0.0286102294921875, 
8.8203125, 3, 0, 7, 0.0011444091796875, 
8.828125, 47, 0, 7, 0.0179290771484375, 
8.8359375, -23, 0, 7, -0.0087738037109375, 
8.84375, -125, 0, 7, -0.0476837158203125, 
8.8515625, -119, 0, 7, -0.0453948974609375, 
8.859375, -7, 0, 7, -0.0026702880859375, 
8.8671875, 74, 2, 7, 0.028228759765625, 
8.875, 61, 0, 7, 0.0232696533203125, 
8.8828125, 4, 0, 7, 0.00152587890625, 
8.890625, -70, 0, 7, -0.026702880859375, 
8.8984375, -93, 0, 7, -0.0354766845703125, 
8.90625, -60, 0, 7, -0.02288818359375, 
8.9140625, -38, 0, 7, -0.014495849609375, 
8.921875, -21, 0, 7, -0.0080108642578125, 
8.9296875, -10, 0, 7, -0.003814697265625, 
8.9375, 35, 0, 7, 0.0133514404296875, 
8.9453125, 118, 0, 7, 0.045013427734375, 
8.953125, 145, 0, 7, 0.0553131103515625, 
8.9609375, 92, 0, 7, 0.03509521484375, 
8.96875, 39, 0, 7, 0.0148773193359375, 
8.9765625, 44, 0, 7, 0.01678466796875, 
8.984375, 56, 0, 7, 0.0213623046875, 
8.9921875, 40, 2, 7, 0.0152587890625, 
9, 66, 0, 7, 0.025177001953125, 
9.0078125, 138, 0, 7, 0.052642822265625, 
9.015625, 181, 0, 7, 0.0690460205078125, 
9.0234375, 241, 0, 7, 0.0919342041015625, 
9.03125, 306, 0, 7, 0.116729736328125, 
9.0390625, 274, 0, 7, 0.104522705078125, 
9.046875, 92, 0, 7, 0.03509521484375, 
9.0546875, -112, 0, 7, -0.042724609375, 
9.0625, -126, 0, 7, -0.048065185546875, 
9.0703125, 17, 0, 7, 0.0064849853515625, 
9.078125, 72, 0, 7, 0.0274658203125, 
9.0859375, -31, 0, 7, -0.0118255615234375, 
9.09375, -58, 0, 7, -0.022125244140625, 
9.1015625, 80, 0, 7, 0.030517578125, 
9.109375, 157, 0, 7, 0.0598907470703125, 
9.1171875, 75, 2, 7, 0.0286102294921875, 
9.125, 67, 0, 7, 0.0255584716796875, 
9.1328125, 266, 0, 7, 0.101470947265625, 
9.140625, 412, 0, 7, 0.15716552734375, 
9.1484375, 150, 0, 7, 0.057220458984375, 
9.15625, -363, 0, 7, -0.138473510742188, 
9.1640625, -561, 0, 7, -0.214004516601563, 
9.171875, -355, 0, 7, -0.135421752929688, 
9.1796875, -183, 0, 7, -0.0698089599609375, 
9.1875, -186, 0, 7, -0.070953369140625, 
9.1953125, -177, 0, 7, -0.0675201416015625, 
9.203125, -77, 0, 7, -0.0293731689453125, 
9.2109375, -11, 0, 7, -0.0041961669921875, 
9.21875, -69, 0, 7, -0.0263214111328125, 
9.2265625, -116, 0, 7, -0.04425048828125, 
9.234375, -42, 0, 7, -0.016021728515625, 
9.2421875, 29, 2, 7, 0.0110626220703125, 
9.25, -5, 0, 7, -0.0019073486328125, 
9.2578125, -55, 0, 7, -0.0209808349609375, 
9.265625, -108, 0, 7, -0.04119873046875, 
9.2734375, -179, 0, 7, -0.0682830810546875, 
9.28125, -156, 0, 7, -0.05950927734375, 
9.2890625, -38, 0, 7, -0.014495849609375, 
9.296875, 62, 0, 7, 0.023651123046875, 
9.3046875, 104, 0, 7, 0.0396728515625, 
9.3125, 153, 0, 7, 0.0583648681640625, 
9.3203125, 209, 0, 7, 0.0797271728515625, 
9.328125, 233, 0, 7, 0.0888824462890625, 
9.3359375, 223, 0, 7, 0.0850677490234375, 
9.34375, 204, 0, 7, 0.07781982421875, 
9.3515625, 298, 0, 7, 0.113677978515625, 
9.359375, 452, 0, 7, 0.17242431640625, 
9.3671875, 540, 2, 7, 0.20599365234375, 
9.375, 577, 0, 7, 0.220108032226563, 
9.3828125, 629, 0, 7, 0.239944458007813, 
9.390625, 851, 0, 7, 0.324630737304688, 
9.3984375, 1165, 0, 7, 0.444412231445313, 
9.40625, 1386, 0, 7, 0.528717041015625, 
9.4140625, 1581, 0, 7, 0.603103637695313, 
9.421875, 1865, 0, 7, 0.711441040039063, 
9.4296875, 2200, 0, 7, 0.8392333984375, 
9.4375, 2351, 0, 7, 0.896835327148438, 
9.4453125, 2279, 0, 7, 0.869369506835938, 
9.453125, 2240, 0, 7, 0.8544921875, 
9.4609375, 2288, 0, 7, 0.872802734375, 
9.46875, 2220, 0, 7, 0.84686279296875, 
9.4765625, 1821, 0, 7, 0.694656372070313, 
9.484375, 1382, 0, 7, 0.527191162109375, 
9.4921875, 1286, 2, 7, 0.490570068359375, 
9.5, 1408, 0, 7, 0.537109375, 
9.5078125, 1527, 0, 7, 0.582504272460938, 
9.515625, 1458, 0, 7, 0.556182861328125, 
9.5234375, 1259, 0, 7, 0.480270385742188, 
9.53125, 1150, 0, 7, 0.438690185546875, 
9.5390625, 1048, 0, 7, 0.3997802734375, 
9.546875, 860, 0, 7, 0.32806396484375, 
9.5546875, 667, 0, 7, 0.254440307617188, 
9.5625, 458, 0, 7, 0.174713134765625, 
9.5703125, 223, 0, 7, 0.0850677490234375, 
9.578125, 138, 0, 7, 0.052642822265625, 
9.5859375, 139, 0, 7, 0.0530242919921875, 
9.59375, 70, 0, 7, 0.026702880859375, 
9.6015625, 88, 0, 7, 0.0335693359375, 
9.609375, 184, 0, 7, 0.0701904296875, 
9.6171875, 110, 2, 7, 0.041961669921875, 
9.625, -97, 0, 7, -0.0370025634765625, 
9.6328125, -266, 0, 7, -0.101470947265625, 
9.640625, -396, 0, 7, -0.15106201171875, 
9.6484375, -482, 0, 7, -0.183868408203125, 
9.65625, -602, 0, 7, -0.229644775390625, 
9.6640625, -799, 0, 7, -0.304794311523438, 
9.671875, -824, 0, 7, -0.3143310546875, 
9.6796875, -764, 0, 7, -0.29144287109375, 
9.6875, -803, 0, 7, -0.306320190429688, 
9.6953125, -674, 0, 7, -0.257110595703125, 
9.703125, -326, 0, 7, -0.124359130859375, 
9.7109375, -63, 0, 7, -0.0240325927734375, 
9.71875, -140, 0, 7, -0.05340576171875, 
9.7265625, -349, 0, 7, -0.133132934570313, 
9.734375, -221, 0, 7, -0.0843048095703125, 
9.7421875, 214, 2, 7, 0.081634521484375, 
9.75, 470, 0, 7, 0.179290771484375, 
9.7578125, 322, 0, 7, 0.122833251953125, 
9.765625, 228, 0, 7, 0.08697509765625, 
9.7734375, 557, 0, 7, 0.212478637695313, 
9.78125, 967, 0, 7, 0.368881225585938, 
9.7890625, 1070, 0, 7, 0.408172607421875, 
9.796875, 993, 0, 7, 0.378799438476563, 
9.8046875, 1144, 0, 7, 0.4364013671875, 
9.8125, 1460, 0, 7, 0.55694580078125, 
9.8203125, 1538, 0, 7, 0.586700439453125, 
9.828125, 1368, 0, 7, 0.5218505859375, 
9.8359375, 1256, 0, 7, 0.4791259765625, 
9.84375, 1350, 0, 7, 0.514984130859375, 
9.8515625, 1527, 0, 7, 0.582504272460938, 
9.859375, 1587, 0, 7, 0.605392456054688, 
9.8671875, 1489, 2, 7, 0.568008422851563, 
9.875, 1341, 0, 7, 0.511550903320313, 
9.8828125, 1157, 0, 7, 0.441360473632813, 
9.890625, 885, 0, 7, 0.337600708007813, 
9.8984375, 581, 0, 7, 0.221633911132813, 
9.90625, 286, 0, 7, 0.109100341796875, 
9.9140625, 4, 0, 7, 0.00152587890625, 
9.921875, -196, 0, 7, -0.07476806640625, 
9.9296875, -329, 0, 7, -0.125503540039063, 
9.9375, -472, 0, 7, -0.1800537109375, 
9.9453125, -562, 0, 7, -0.214385986328125, 
9.953125, -500, 0, 7, -0.19073486328125, 
9.9609375, -437, 0, 7, -0.166702270507813, 
9.96875, -595, 0, 7, -0.226974487304688, 
9.9765625, -854, 0, 7, -0.325775146484375, 
9.984375, -890, 0, 7, -0.339508056640625, 
9.9921875, -645, 2, 7, -0.246047973632813, 
10, -389, 0, 7, -0.148391723632813, 
10.0078125, -372, 0, 7, -0.14190673828125, 
10.015625, -444, 0, 7, -0.16937255859375, 
10.0234375, -456, 0, 7, -0.1739501953125, 
10.03125, -443, 0, 7, -0.168991088867188, 
10.0390625, -428, 0, 7, -0.16326904296875, 
10.046875, -347, 0, 7, -0.132369995117188, 
10.0546875, -190, 0, 7, -0.072479248046875, 
10.0625, -110, 0, 7, -0.041961669921875, 
10.0703125, -163, 0, 7, -0.0621795654296875, 
10.078125, -234, 0, 7, -0.089263916015625, 
10.0859375, -254, 0, 7, -0.096893310546875, 
10.09375, -233, 0, 7, -0.0888824462890625, 
10.1015625, -247, 0, 7, -0.0942230224609375, 
10.109375, -273, 0, 7, -0.104141235351563, 
10.1171875, -285, 2, 7, -0.108718872070313, 
10.125, -214, 0, 7, -0.081634521484375, 
10.1328125, -76, 0, 7, -0.02899169921875, 
10.140625, -18, 0, 7, -0.006866455078125, 
10.1484375, 14, 0, 7, 0.005340576171875, 
10.15625, 130, 0, 7, 0.049591064453125, 
10.1640625, 204, 0, 7, 0.07781982421875, 
10.171875, 136, 0, 7, 0.0518798828125, 
10.1796875, 21, 0, 7, 0.0080108642578125, 
10.1875, 43, 0, 7, 0.0164031982421875, 
10.1953125, 231, 0, 7, 0.0881195068359375, 
10.203125, 415, 0, 7, 0.158309936523438, 
10.2109375, 432, 0, 7, 0.164794921875, 
10.21875, 412, 0, 7, 0.15716552734375, 
10.2265625, 444, 0, 7, 0.16937255859375, 
10.234375, 388, 0, 7, 0.14801025390625, 
10.2421875, 267, 2, 7, 0.101852416992188, 
10.25, 253, 0, 7, 0.0965118408203125, 
10.2578125, 296, 0, 7, 0.1129150390625, 
10.265625, 253, 0, 7, 0.0965118408203125, 
10.2734375, 125, 0, 7, 0.0476837158203125, 
10.28125, -4, 0, 7, -0.00152587890625, 
10.2890625, -29, 0, 7, -0.0110626220703125, 
10.296875, 83, 0, 7, 0.0316619873046875, 
10.3046875, 185, 0, 7, 0.0705718994140625, 
10.3125, 163, 0, 7, 0.0621795654296875, 
10.3203125, 32, 0, 7, 0.01220703125, 
10.328125, -89, 0, 7, -0.0339508056640625, 
10.3359375, -129, 0, 7, -0.0492095947265625, 
10.34375, -136, 0, 7, -0.0518798828125, 
10.3515625, -188, 0, 7, -0.07171630859375, 
10.359375, -241, 0, 7, -0.0919342041015625, 
10.3671875, -214, 2, 7, -0.081634521484375, 
10.375, -163, 0, 7, -0.0621795654296875, 
10.3828125, -135, 0, 7, -0.0514984130859375, 
10.390625, -80, 0, 7, -0.030517578125, 
10.3984375, -47, 0, 7, -0.0179290771484375, 
10.40625, -118, 0, 7, -0.045013427734375, 
10.4140625, -280, 0, 7, -0.1068115234375, 
10.421875, -376, 0, 7, -0.1434326171875, 
10.4296875, -236, 0, 7, -0.09002685546875, 
10.4375, 58, 0, 7, 0.022125244140625, 
10.4453125, 293, 0, 7, 0.111770629882813, 
10.453125, 346, 0, 7, 0.131988525390625, 
10.4609375, 231, 0, 7, 0.0881195068359375, 
10.46875, 64, 0, 7, 0.0244140625, 
10.4765625, -51, 0, 7, -0.0194549560546875, 
10.484375, -88, 0, 7, -0.0335693359375, 
10.4921875, -42, 2, 7, -0.016021728515625, 
10.5, 55, 0, 7, 0.0209808349609375, 
10.5078125, 94, 0, 7, 0.035858154296875, 
10.515625, 39, 0, 7, 0.0148773193359375, 
10.5234375, 42, 0, 7, 0.016021728515625, 
10.53125, 237, 0, 7, 0.0904083251953125, 
10.5390625, 525, 0, 7, 0.200271606445313, 
10.546875, 874, 0, 7, 0.333404541015625, 
10.5546875, 1241, 0, 7, 0.473403930664063, 
10.5625, 1490, 0, 7, 0.568389892578125, 
10.5703125, 1477, 0, 7, 0.563430786132813, 
10.578125, 1206, 0, 7, 0.460052490234375, 
10.5859375, 998, 0, 7, 0.380706787109375, 
10.59375, 1042, 0, 7, 0.397491455078125, 
10.6015625, 1190, 0, 7, 0.453948974609375, 
10.609375, 1259, 0, 7, 0.480270385742188, 
10.6171875, 1088, 2, 7, 0.4150390625, 
10.625, 594, 0, 7, 0.226593017578125, 
10.6328125, -142, 0, 7, -0.054168701171875, 
10.640625, -788, 0, 7, -0.30059814453125, 
10.6484375, -1011, 0, 7, -0.385665893554688, 
10.65625, -774, 0, 7, -0.295257568359375, 
10.6640625, -448, 0, 7, -0.1708984375, 
10.671875, -450, 0, 7, -0.171661376953125, 
10.6796875, -676, 0, 7, -0.25787353515625, 
10.6875, -777, 0, 7, -0.296401977539063, 
10.6953125, -590, 0, 7, -0.225067138671875, 
10.703125, -300, 0, 7, -0.11444091796875, 
10.7109375, -244, 0, 7, -0.09307861328125, 
10.71875, -349, 0, 7, -0.133132934570313, 
10.7265625, -281, 0, 7, -0.107192993164063, 
10.734375, -65, 0, 7, -0.0247955322265625, 
10.7421875, 37, 2, 7, 0.0141143798828125, 
10.75, 47, 0, 7, 0.0179290771484375, 
10.7578125, 219, 0, 7, 0.0835418701171875, 
10.765625, 497, 0, 7, 0.189590454101563, 
10.7734375, 590, 0, 7, 0.225067138671875, 
10.78125, 403, 0, 7, 0.153732299804688, 
10.7890625, 144, 0, 7, 0.054931640625, 
10.796875, 86, 0, 7, 0.032806396484375, 
10.8046875, 140, 0, 7, 0.05340576171875, 
10.8125, 91, 0, 7, 0.0347137451171875, 
10.8203125, -19, 0, 7, -0.0072479248046875, 
10.828125, -130, 0, 7, -0.049591064453125, 
10.8359375, -186, 0, 7, -0.070953369140625, 
10.84375, -140, 0, 7, -0.05340576171875, 
10.8515625, -4, 0, 7, -0.00152587890625, 
10.859375, 181, 0, 7, 0.0690460205078125, 
10.8671875, 344, 2, 7, 0.1312255859375, 
10.875, 473, 0, 7, 0.180435180664063, 
10.8828125, 525, 0, 7, 0.200271606445313, 
10.890625, 442, 0, 7, 0.168609619140625, 
10.8984375, 238, 0, 7, 0.090789794921875, 
10.90625, -1, 0, 7, -0.0003814697265625, 
10.9140625, -149, 0, 7, -0.0568389892578125, 
10.921875, -287, 0, 7, -0.109481811523438, 
10.9296875, -543, 0, 7, -0.207138061523438, 
10.9375, -876, 0, 7, -0.33416748046875, 
10.9453125, -1201, 0, 7, -0.458145141601563, 
10.953125, -1397, 0, 7, -0.532913208007813, 
10.9609375, -1481, 0, 7, -0.564956665039063, 
10.96875, -1604, 0, 7, -0.61187744140625, 
10.9765625, -1684, 0, 7, -0.64239501953125, 
10.984375, -1682, 0, 7, -0.641632080078125, 
10.9921875, -1773, 2, 7, -0.676345825195313, 
11, -2034, 0, 7, -0.775909423828125, 
11.0078125, -2315, 0, 7, -0.883102416992188, 
11.015625, -2347, 0, 7, -0.895309448242188, 
11.0234375, -2170, 0, 7, -0.827789306640625, 
11.03125, -2139, 0, 7, -0.815963745117188, 
11.0390625, -2471, 0, 7, -0.942611694335938, 
11.046875, -2893, 0, 7, -1.10359191894531, 
11.0546875, -3059, 0, 7, -1.16691589355469, 
11.0625, -3088, 0, 7, -1.177978515625, 
11.0703125, -3085, 0, 7, -1.17683410644531, 
11.078125, -3031, 0, 7, -1.15623474121094, 
11.0859375, -3060, 0, 7, -1.16729736328125, 
11.09375, -3213, 0, 7, -1.22566223144531, 
11.1015625, -3441, 0, 7, -1.31263732910156, 
11.109375, -3603, 0, 7, -1.37443542480469, 
11.1171875, -3467, 2, 7, -1.32255554199219, 
11.125, -3066, 0, 7, -1.16958618164063, 
11.1328125, -2682, 0, 7, -1.02310180664063, 
11.140625, -2481, 0, 7, -0.946426391601563, 
11.1484375, -2380, 0, 7, -0.90789794921875, 
11.15625, -2276, 0, 7, -0.86822509765625, 
11.1640625, -2178, 0, 7, -0.830841064453125, 
11.171875, -2261, 0, 7, -0.862503051757813, 
11.1796875, -2682, 0, 7, -1.02310180664063, 
11.1875, -3261, 0, 7, -1.24397277832031, 
11.1953125, -3628, 0, 7, -1.38397216796875, 
11.203125, -3727, 0, 7, -1.42173767089844, 
11.2109375, -3713, 0, 7, -1.41639709472656, 
11.21875, -3714, 0, 7, -1.41677856445313, 
11.2265625, -3747, 0, 7, -1.42936706542969, 
11.234375, -3724, 0, 7, -1.42059326171875, 
11.2421875, -3630, 2, 7, -1.38473510742188, 
11.25, -3552, 0, 7, -1.35498046875, 
11.2578125, -3443, 0, 7, -1.31340026855469, 
11.265625, -3270, 0, 7, -1.24740600585938, 
11.2734375, -3095, 0, 7, -1.18064880371094, 
11.28125, -3015, 0, 7, -1.15013122558594, 
11.2890625, -3031, 0, 7, -1.15623474121094, 
11.296875, -3001, 0, 7, -1.14479064941406, 
11.3046875, -2851, 0, 7, -1.08757019042969, 
11.3125, -2658, 0, 7, -1.01394653320313, 
11.3203125, -2506, 0, 7, -0.955963134765625, 
11.328125, -2363, 0, 7, -0.901412963867188, 
11.3359375, -2191, 0, 7, -0.835800170898438, 
11.34375, -2028, 0, 7, -0.77362060546875, 
11.3515625, -1881, 0, 7, -0.717544555664063, 
11.359375, -1782, 0, 7, -0.679779052734375, 
11.3671875, -1755, 2, 7, -0.669479370117188, 
11.375, -1705, 0, 7, -0.650405883789063, 
11.3828125, -1627, 0, 7, -0.620651245117188, 
11.390625, -1566, 0, 7, -0.597381591796875, 
11.3984375, -1519, 0, 7, -0.579452514648438, 
11.40625, -1481, 0, 7, -0.564956665039063, 
11.4140625, -1406, 0, 7, -0.536346435546875, 
11.421875, -1336, 0, 7, -0.5096435546875, 
11.4296875, -1323, 0, 7, -0.504684448242188, 
11.4375, -1350, 0, 7, -0.514984130859375, 
11.4453125, -1323, 0, 7, -0.504684448242188, 
11.453125, -1241, 0, 7, -0.473403930664063, 
11.4609375, -1206, 0, 7, -0.460052490234375, 
11.46875, -1237, 0, 7, -0.471878051757813, 
11.4765625, -1287, 0, 7, -0.490951538085938, 
11.484375, -1277, 0, 7, -0.487136840820313, 
11.4921875, -1199, 2, 7, -0.457382202148438, 
11.5, -1153, 0, 7, -0.439834594726563, 
11.5078125, -1177, 0, 7, -0.448989868164063, 
11.515625, -1200, 0, 7, -0.457763671875, 
11.5234375, -1133, 0, 7, -0.432205200195313, 
11.53125, -996, 0, 7, -0.37994384765625, 
11.5390625, -853, 0, 7, -0.325393676757813, 
11.546875, -749, 0, 7, -0.285720825195313, 
11.5546875, -703, 0, 7, -0.268173217773438, 
11.5625, -674, 0, 7, -0.257110595703125, 
11.5703125, -661, 0, 7, -0.252151489257813, 
11.578125, -679, 0, 7, -0.259017944335938, 
11.5859375, -708, 0, 7, -0.27008056640625, 
11.59375, -614, 0, 7, -0.234222412109375, 
11.6015625, -401, 0, 7, -0.152969360351563, 
11.609375, -305, 0, 7, -0.116348266601563, 
11.6171875, -386, 2, 7, -0.147247314453125, 
11.625, -500, 0, 7, -0.19073486328125, 
11.6328125, -484, 0, 7, -0.18463134765625, 
11.640625, -306, 0, 7, -0.116729736328125, 
11.6484375, -160, 0, 7, -0.06103515625, 
11.65625, -92, 0, 7, -0.03509521484375, 
11.6640625, -38, 0, 7, -0.014495849609375, 
11.671875, -25, 0, 7, -0.0095367431640625, 
11.6796875, -74, 0, 7, -0.028228759765625, 
11.6875, -74, 0, 7, -0.028228759765625, 
11.6953125, 62, 0, 7, 0.023651123046875, 
11.703125, 252, 0, 7, 0.09613037109375, 
11.7109375, 396, 0, 7, 0.15106201171875, 
11.71875, 396, 0, 7, 0.15106201171875, 
11.7265625, 187, 0, 7, 0.0713348388671875, 
11.734375, -60, 0, 7, -0.02288818359375, 
11.7421875, -144, 2, 7, -0.054931640625, 
11.75, -64, 0, 7, -0.0244140625, 
11.7578125, 110, 0, 7, 0.041961669921875, 
11.765625, 302, 0, 7, 0.115203857421875, 
11.7734375, 439, 0, 7, 0.167465209960938, 
11.78125, 491, 0, 7, 0.187301635742188, 
11.7890625, 424, 0, 7, 0.1617431640625, 
11.796875, 294, 0, 7, 0.112152099609375, 
11.8046875, 298, 0, 7, 0.113677978515625, 
11.8125, 435, 0, 7, 0.165939331054688, 
11.8203125, 517, 0, 7, 0.197219848632813, 
11.828125, 489, 0, 7, 0.186538696289063, 
11.8359375, 468, 0, 7, 0.17852783203125, 
11.84375, 564, 0, 7, 0.21514892578125, 
11.8515625, 696, 0, 7, 0.2655029296875, 
11.859375, 737, 0, 7, 0.281143188476563, 
11.8671875, 718, 2, 7, 0.273895263671875, 
11.875, 771, 0, 7, 0.294113159179688, 
11.8828125, 901, 0, 7, 0.343704223632813, 
11.890625, 964, 0, 7, 0.36773681640625, 
11.8984375, 1035, 0, 7, 0.394821166992188, 
11.90625, 1170, 0, 7, 0.446319580078125, 
11.9140625, 1291, 0, 7, 0.492477416992188, 
11.921875, 1399, 0, 7, 0.533676147460938, 
11.9296875, 1470, 0, 7, 0.560760498046875, 
11.9375, 1566, 0, 7, 0.597381591796875, 
11.9453125, 1710, 0, 7, 0.652313232421875, 
11.953125, 1783, 0, 7, 0.680160522460938, 
11.9609375, 1845, 0, 7, 0.703811645507813, 
11.96875, 2018, 0, 7, 0.769805908203125, 
11.9765625, 2265, 0, 7, 0.864028930664063, 
11.984375, 2379, 0, 7, 0.907516479492188, 
11.9921875, 2286, 2, 7, 0.872039794921875, 
12, 2104, 0, 7, 0.8026123046875, 
12.0078125, 1993, 0, 7, 0.760269165039063, 
12.015625, 2015, 0, 7, 0.768661499023438, 
12.0234375, 1965, 0, 7, 0.749588012695313, 
12.03125, 1783, 0, 7, 0.680160522460938, 
12.0390625, 1672, 0, 7, 0.6378173828125, 
12.046875, 1613, 0, 7, 0.615310668945313, 
12.0546875, 1509, 0, 7, 0.575637817382813, 
12.0625, 1345, 0, 7, 0.513076782226563, 
12.0703125, 1213, 0, 7, 0.462722778320313, 
12.078125, 1196, 0, 7, 0.45623779296875, 
12.0859375, 1215, 0, 7, 0.463485717773438, 
12.09375, 1187, 0, 7, 0.452804565429688, 
12.1015625, 1144, 0, 7, 0.4364013671875, 
12.109375, 1147, 0, 7, 0.437545776367188, 
12.1171875, 1156, 2, 7, 0.44097900390625, 
12.125, 1126, 0, 7, 0.429534912109375, 
12.1328125, 1092, 0, 7, 0.41656494140625, 
12.140625, 1053, 0, 7, 0.401687622070313, 
12.1484375, 1015, 0, 7, 0.387191772460938, 
12.15625, 1024, 0, 7, 0.390625, 
12.1640625, 1049, 0, 7, 0.400161743164063, 
12.171875, 1038, 0, 7, 0.395965576171875, 
12.1796875, 985, 0, 7, 0.375747680664063, 
12.1875, 907, 0, 7, 0.345993041992188, 
12.1953125, 821, 0, 7, 0.313186645507813, 
12.203125, 724, 0, 7, 0.27618408203125, 
12.2109375, 676, 0, 7, 0.25787353515625, 
12.21875, 695, 0, 7, 0.265121459960938, 
12.2265625, 736, 0, 7, 0.28076171875, 
12.234375, 756, 0, 7, 0.28839111328125, 
12.2421875, 699, 2, 7, 0.266647338867188, 
12.25, 645, 0, 7, 0.246047973632813, 
12.2578125, 640, 0, 7, 0.244140625, 
12.265625, 660, 0, 7, 0.25177001953125, 
12.2734375, 662, 0, 7, 0.252532958984375, 
12.28125, 592, 0, 7, 0.225830078125, 
12.2890625, 447, 0, 7, 0.170516967773438, 
12.296875, 308, 0, 7, 0.11749267578125, 
12.3046875, 322, 0, 7, 0.122833251953125, 
12.3125, 461, 0, 7, 0.175857543945313, 
12.3203125, 543, 0, 7, 0.207138061523438, 
12.328125, 512, 0, 7, 0.1953125, 
12.3359375, 417, 0, 7, 0.159072875976563, 
12.34375, 358, 0, 7, 0.136566162109375, 
12.3515625, 387, 0, 7, 0.147628784179688, 
12.359375, 474, 0, 7, 0.180816650390625, 
12.3671875, 536, 2, 7, 0.2044677734375, 
12.375, 517, 0, 7, 0.197219848632813, 
12.3828125, 487, 0, 7, 0.185775756835938, 
12.390625, 496, 0, 7, 0.189208984375, 
12.3984375, 565, 0, 7, 0.215530395507813, 
12.40625, 668, 0, 7, 0.25482177734375, 
12.4140625, 722, 0, 7, 0.275421142578125, 
12.421875, 708, 0, 7, 0.27008056640625, 
12.4296875, 655, 0, 7, 0.249862670898438, 
12.4375, 611, 0, 7, 0.233078002929688, 
12.4453125, 530, 0, 7, 0.202178955078125, 
12.453125, 422, 0, 7, 0.160980224609375, 
12.4609375, 372, 0, 7, 0.14190673828125, 
12.46875, 357, 0, 7, 0.136184692382813, 
12.4765625, 355, 0, 7, 0.135421752929688, 
12.484375, 335, 0, 7, 0.127792358398438, 
12.4921875, 309, 2, 7, 0.117874145507813, 
12.5, 341, 0, 7, 0.130081176757813, 
12.5078125, 362, 0, 7, 0.138092041015625, 
12.515625, 396, 0, 7, 0.15106201171875, 
12.5234375, 513, 0, 7, 0.195693969726563, 
12.53125, 580, 0, 7, 0.22125244140625, 
12.5390625, 387, 0, 7, 0.147628784179688, 
12.546875, 0, 0, 7, 0, 
12.5546875, -200, 0, 7, -0.0762939453125, 
12.5625, -71, 0, 7, -0.0270843505859375, 
12.5703125, 177, 0, 7, 0.0675201416015625, 
12.578125, 329, 0, 7, 0.125503540039063, 
12.5859375, 384, 0, 7, 0.146484375, 
12.59375, 421, 0, 7, 0.160598754882813, 
12.6015625, 412, 0, 7, 0.15716552734375, 
12.609375, 345, 0, 7, 0.131607055664063, 
12.6171875, 330, 2, 7, 0.125885009765625, 
12.625, 403, 0, 7, 0.153732299804688, 
12.6328125, 438, 0, 7, 0.167083740234375, 
12.640625, 372, 0, 7, 0.14190673828125, 
12.6484375, 264, 0, 7, 0.1007080078125, 
12.65625, 251, 0, 7, 0.0957489013671875, 
12.6640625, 322, 0, 7, 0.122833251953125, 
12.671875, 334, 0, 7, 0.127410888671875, 
12.6796875, 312, 0, 7, 0.1190185546875, 
12.6875, 358, 0, 7, 0.136566162109375, 
12.6953125, 425, 0, 7, 0.162124633789063, 
12.703125, 385, 0, 7, 0.146865844726563, 
12.7109375, 251, 0, 7, 0.0957489013671875, 
12.71875, 195, 0, 7, 0.0743865966796875, 
12.7265625, 219, 0, 7, 0.0835418701171875, 
12.734375, 260, 0, 7, 0.09918212890625, 
12.7421875, 321, 2, 7, 0.122451782226563, 
12.75, 386, 0, 7, 0.147247314453125, 
12.7578125, 394, 0, 7, 0.150299072265625, 
12.765625, 294, 0, 7, 0.112152099609375, 
12.7734375, 181, 0, 7, 0.0690460205078125, 
12.78125, 251, 0, 7, 0.0957489013671875, 
12.7890625, 443, 0, 7, 0.168991088867188, 
12.796875, 523, 0, 7, 0.199508666992188, 
12.8046875, 437, 0, 7, 0.166702270507813, 
12.8125, 345, 0, 7, 0.131607055664063, 
12.8203125, 288, 0, 7, 0.10986328125, 
12.828125, 234, 0, 7, 0.089263916015625, 
12.8359375, 210, 0, 7, 0.080108642578125, 
12.84375, 211, 0, 7, 0.0804901123046875, 
12.8515625, 137, 0, 7, 0.0522613525390625, 
12.859375, 15, 0, 7, 0.0057220458984375, 
12.8671875, -92, 2, 7, -0.03509521484375, 
12.875, -155, 0, 7, -0.0591278076171875, 
12.8828125, -140, 0, 7, -0.05340576171875, 
12.890625, -70, 0, 7, -0.026702880859375, 
12.8984375, -10, 0, 7, -0.003814697265625, 
12.90625, 54, 0, 7, 0.020599365234375, 
12.9140625, 26, 0, 7, 0.009918212890625, 
12.921875, -116, 0, 7, -0.04425048828125, 
12.9296875, -205, 0, 7, -0.0782012939453125, 
12.9375, -111, 0, 7, -0.0423431396484375, 
12.9453125, 60, 0, 7, 0.02288818359375, 
12.953125, 122, 0, 7, 0.046539306640625, 
12.9609375, 53, 0, 7, 0.0202178955078125, 
12.96875, -40, 0, 7, -0.0152587890625, 
12.9765625, -61, 0, 7, -0.0232696533203125, 
12.984375, -18, 0, 7, -0.006866455078125, 
12.9921875, -1, 2, 7, -0.0003814697265625, 
13, 2, 0, 7, 0.000762939453125, 
13.0078125, 7, 0, 7, 0.0026702880859375, 
13.015625, -18, 0, 7, -0.006866455078125, 
13.0234375, -54, 0, 7, -0.020599365234375, 
13.03125, -62, 0, 7, -0.023651123046875, 
13.0390625, -35, 0, 7, -0.0133514404296875, 
13.046875, -39, 0, 7, -0.0148773193359375, 
13.0546875, -72, 0, 7, -0.0274658203125, 
13.0625, -97, 0, 7, -0.0370025634765625, 
13.0703125, -93, 0, 7, -0.0354766845703125, 
13.078125, -83, 0, 7, -0.0316619873046875, 
13.0859375, -91, 0, 7, -0.0347137451171875, 
13.09375, -92, 0, 7, -0.03509521484375, 
13.1015625, -82, 0, 7, -0.031280517578125, 
13.109375, -115, 0, 7, -0.0438690185546875, 
13.1171875, -144, 2, 7, -0.054931640625, 
13.125, -115, 0, 7, -0.0438690185546875, 
13.1328125, -94, 0, 7, -0.035858154296875, 
13.140625, -149, 0, 7, -0.0568389892578125, 
13.1484375, -200, 0, 7, -0.0762939453125, 
13.15625, -186, 0, 7, -0.070953369140625, 
13.1640625, -130, 0, 7, -0.049591064453125, 
13.171875, -89, 0, 7, -0.0339508056640625, 
13.1796875, -98, 0, 7, -0.037384033203125, 
13.1875, -124, 0, 7, -0.04730224609375, 
13.1953125, -90, 0, 7, -0.034332275390625, 
13.203125, -72, 0, 7, -0.0274658203125, 
13.2109375, -103, 0, 7, -0.0392913818359375, 
13.21875, -134, 0, 7, -0.051116943359375, 
13.2265625, -194, 0, 7, -0.074005126953125, 
13.234375, -279, 0, 7, -0.106430053710938, 
13.2421875, -329, 2, 7, -0.125503540039063, 
13.25, -294, 0, 7, -0.112152099609375, 
13.2578125, -250, 0, 7, -0.095367431640625, 
13.265625, -252, 0, 7, -0.09613037109375, 
13.2734375, -330, 0, 7, -0.125885009765625, 
13.28125, -392, 0, 7, -0.1495361328125, 
13.2890625, -372, 0, 7, -0.14190673828125, 
13.296875, -363, 0, 7, -0.138473510742188, 
13.3046875, -320, 0, 7, -0.1220703125, 
13.3125, -179, 0, 7, -0.0682830810546875, 
13.3203125, -36, 0, 7, -0.01373291015625, 
13.328125, -108, 0, 7, -0.04119873046875, 
13.3359375, -426, 0, 7, -0.162506103515625, 
13.34375, -665, 0, 7, -0.253677368164063, 
13.3515625, -592, 0, 7, -0.225830078125, 
13.359375, -398, 0, 7, -0.151824951171875, 
13.3671875, -347, 2, 7, -0.132369995117188, 
13.375, -371, 0, 7, -0.141525268554688, 
13.3828125, -320, 0, 7, -0.1220703125, 
13.390625, -269, 0, 7, -0.102615356445313, 
13.3984375, -248, 0, 7, -0.0946044921875, 
13.40625, -257, 0, 7, -0.0980377197265625, 
13.4140625, -253, 0, 7, -0.0965118408203125, 
13.421875, -229, 0, 7, -0.0873565673828125, 
13.4296875, -248, 0, 7, -0.0946044921875, 
13.4375, -268, 0, 7, -0.10223388671875, 
13.4453125, -241, 0, 7, -0.0919342041015625, 
13.453125, -229, 0, 7, -0.0873565673828125, 
13.4609375, -240, 0, 7, -0.091552734375, 
13.46875, -183, 0, 7, -0.0698089599609375, 
13.4765625, -109, 0, 7, -0.0415802001953125, 
13.484375, -120, 0, 7, -0.0457763671875, 
13.4921875, -165, 2, 7, -0.0629425048828125, 
13.5, -185, 0, 7, -0.0705718994140625, 
13.5078125, -176, 0, 7, -0.067138671875, 
13.515625, -159, 0, 7, -0.0606536865234375, 
13.5234375, -162, 0, 7, -0.061798095703125, 
13.53125, -154, 0, 7, -0.058746337890625, 
13.5390625, -104, 0, 7, -0.0396728515625, 
13.546875, -33, 0, 7, -0.0125885009765625, 
13.5546875, 18, 0, 7, 0.006866455078125, 
13.5625, 40, 0, 7, 0.0152587890625, 
13.5703125, 5, 0, 7, 0.0019073486328125, 
13.578125, -48, 0, 7, -0.018310546875, 
13.5859375, -11, 0, 7, -0.0041961669921875, 
13.59375, 77, 0, 7, 0.0293731689453125, 
13.6015625, 137, 0, 7, 0.0522613525390625, 
13.609375, 111, 0, 7, 0.0423431396484375, 
13.6171875, -17, 2, 7, -0.0064849853515625, 
13.625, -165, 0, 7, -0.0629425048828125, 
13.6328125, -251, 0, 7, -0.0957489013671875, 
13.640625, -275, 0, 7, -0.104904174804688, 
13.6484375, -282, 0, 7, -0.107574462890625, 
13.65625, -329, 0, 7, -0.125503540039063, 
13.6640625, -367, 0, 7, -0.139999389648438, 
13.671875, -319, 0, 7, -0.121688842773438, 
13.6796875, -233, 0, 7, -0.0888824462890625, 
13.6875, -249, 0, 7, -0.0949859619140625, 
13.6953125, -366, 0, 7, -0.139617919921875, 
13.703125, -469, 0, 7, -0.178909301757813, 
13.7109375, -462, 0, 7, -0.176239013671875, 
13.71875, -312, 0, 7, -0.1190185546875, 
13.7265625, -157, 0, 7, -0.0598907470703125, 
13.734375, -176, 0, 7, -0.067138671875, 
13.7421875, -286, 2, 7, -0.109100341796875, 
13.75, -316, 0, 7, -0.12054443359375, 
13.7578125, -283, 0, 7, -0.107955932617188, 
13.765625, -224, 0, 7, -0.08544921875, 
13.7734375, -163, 0, 7, -0.0621795654296875, 
13.78125, -145, 0, 7, -0.0553131103515625, 
13.7890625, -176, 0, 7, -0.067138671875, 
13.796875, -262, 0, 7, -0.099945068359375, 
13.8046875, -310, 0, 7, -0.118255615234375, 
13.8125, -216, 0, 7, -0.0823974609375, 
13.8203125, -73, 0, 7, -0.0278472900390625, 
13.828125, -51, 0, 7, -0.0194549560546875, 
13.8359375, -126, 0, 7, -0.048065185546875, 
13.84375, -163, 0, 7, -0.0621795654296875, 
13.8515625, -143, 0, 7, -0.0545501708984375, 
13.859375, -123, 0, 7, -0.0469207763671875, 
13.8671875, -71, 2, 7, -0.0270843505859375, 
13.875, 1, 0, 7, 0.0003814697265625, 
13.8828125, 27, 0, 7, 0.0102996826171875, 
13.890625, 4, 0, 7, 0.00152587890625, 
13.8984375, -50, 0, 7, -0.019073486328125, 
13.90625, -104, 0, 7, -0.0396728515625, 
13.9140625, -154, 0, 7, -0.058746337890625, 
13.921875, -161, 0, 7, -0.0614166259765625, 
13.9296875, -102, 0, 7, -0.038909912109375, 
13.9375, -28, 0, 7, -0.01068115234375, 
13.9453125, -4, 0, 7, -0.00152587890625, 
13.953125, -24, 0, 7, -0.0091552734375, 
13.9609375, -94, 0, 7, -0.035858154296875, 
13.96875, -154, 0, 7, -0.058746337890625, 
13.9765625, -161, 0, 7, -0.0614166259765625, 
13.984375, -113, 0, 7, -0.0431060791015625, 
13.9921875, -16, 2, 7, -0.006103515625, 
14, 39, 0, 7, 0.0148773193359375, 
14.0078125, -27, 0, 7, -0.0102996826171875, 
14.015625, -113, 0, 7, -0.0431060791015625, 
14.0234375, -104, 0, 7, -0.0396728515625, 
14.03125, -61, 0, 7, -0.0232696533203125, 
14.0390625, -56, 0, 7, -0.0213623046875, 
14.046875, -94, 0, 7, -0.035858154296875, 
14.0546875, -131, 0, 7, -0.0499725341796875, 
14.0625, -72, 0, 7, -0.0274658203125, 
14.0703125, 60, 0, 7, 0.02288818359375, 
14.078125, 90, 0, 7, 0.034332275390625, 
14.0859375, -9, 0, 7, -0.0034332275390625, 
14.09375, -88, 0, 7, -0.0335693359375, 
14.1015625, -106, 0, 7, -0.040435791015625, 
14.109375, -113, 0, 7, -0.0431060791015625, 
14.1171875, -131, 2, 7, -0.0499725341796875, 
14.125, -122, 0, 7, -0.046539306640625, 
14.1328125, -54, 0, 7, -0.020599365234375, 
14.140625, 7, 0, 7, 0.0026702880859375, 
14.1484375, -38, 0, 7, -0.014495849609375, 
14.15625, -109, 0, 7, -0.0415802001953125, 
14.1640625, -38, 0, 7, -0.014495849609375, 
14.171875, 128, 0, 7, 0.048828125, 
14.1796875, 182, 0, 7, 0.069427490234375, 
14.1875, 63, 0, 7, 0.0240325927734375, 
14.1953125, -124, 0, 7, -0.04730224609375, 
14.203125, -250, 0, 7, -0.095367431640625, 
14.2109375, -272, 0, 7, -0.103759765625, 
14.21875, -204, 0, 7, -0.07781982421875, 
14.2265625, -97, 0, 7, -0.0370025634765625, 
14.234375, 9, 0, 7, 0.0034332275390625, 
14.2421875, 70, 2, 7, 0.026702880859375, 
14.25, 44, 0, 7, 0.01678466796875, 
14.2578125, 24, 0, 7, 0.0091552734375, 
14.265625, 101, 0, 7, 0.0385284423828125, 
14.2734375, 189, 0, 7, 0.0720977783203125, 
14.28125, 186, 0, 7, 0.070953369140625, 
14.2890625, 88, 0, 7, 0.0335693359375, 
14.296875, -5, 0, 7, -0.0019073486328125, 
14.3046875, -16, 0, 7, -0.006103515625, 
14.3125, 56, 0, 7, 0.0213623046875, 
14.3203125, 154, 0, 7, 0.058746337890625, 
14.328125, 172, 0, 7, 0.06561279296875, 
14.3359375, 99, 0, 7, 0.0377655029296875, 
14.34375, 31, 0, 7, 0.0118255615234375, 
14.3515625, 41, 0, 7, 0.0156402587890625, 
14.359375, 140, 0, 7, 0.05340576171875, 
14.3671875, 237, 2, 7, 0.0904083251953125, 
14.375, 243, 0, 7, 0.0926971435546875, 
14.3828125, 148, 0, 7, 0.05645751953125, 
14.390625, 57, 0, 7, 0.0217437744140625, 
14.3984375, 63, 0, 7, 0.0240325927734375, 
14.40625, 143, 0, 7, 0.0545501708984375, 
14.4140625, 225, 0, 7, 0.0858306884765625, 
14.421875, 272, 0, 7, 0.103759765625, 
14.4296875, 301, 0, 7, 0.114822387695313, 
14.4375, 300, 0, 7, 0.11444091796875, 
14.4453125, 270, 0, 7, 0.102996826171875, 
14.453125, 259, 0, 7, 0.0988006591796875, 
14.4609375, 293, 0, 7, 0.111770629882813, 
14.46875, 309, 0, 7, 0.117874145507813, 
14.4765625, 281, 0, 7, 0.107192993164063, 
14.484375, 186, 0, 7, 0.070953369140625, 
14.4921875, 48, 2, 7, 0.018310546875, 
14.5, -62, 0, 7, -0.023651123046875, 
14.5078125, -107, 0, 7, -0.0408172607421875, 
14.515625, -63, 0, 7, -0.0240325927734375, 
14.5234375, 14, 0, 7, 0.005340576171875, 
14.53125, -23, 0, 7, -0.0087738037109375, 
14.5390625, -138, 0, 7, -0.052642822265625, 
14.546875, -199, 0, 7, -0.0759124755859375, 
14.5546875, -223, 0, 7, -0.0850677490234375, 
14.5625, -272, 0, 7, -0.103759765625, 
14.5703125, -234, 0, 7, -0.089263916015625, 
14.578125, -96, 0, 7, -0.03662109375, 
14.5859375, -24, 0, 7, -0.0091552734375, 
14.59375, -98, 0, 7, -0.037384033203125, 
14.6015625, -232, 0, 7, -0.0885009765625, 
14.609375, -250, 0, 7, -0.095367431640625, 
14.6171875, -114, 2, 7, -0.043487548828125, 
14.625, -4, 0, 7, -0.00152587890625, 
14.6328125, 14, 0, 7, 0.005340576171875, 
14.640625, 18, 0, 7, 0.006866455078125, 
14.6484375, 8, 0, 7, 0.0030517578125, 
14.65625, -45, 0, 7, -0.0171661376953125, 
14.6640625, -81, 0, 7, -0.0308990478515625, 
14.671875, -37, 0, 7, -0.0141143798828125, 
14.6796875, 37, 0, 7, 0.0141143798828125, 
14.6875, 37, 0, 7, 0.0141143798828125, 
14.6953125, -31, 0, 7, -0.0118255615234375, 
14.703125, -58, 0, 7, -0.022125244140625, 
14.7109375, -7, 0, 7, -0.0026702880859375, 
14.71875, 24, 0, 7, 0.0091552734375, 
14.7265625, -3, 0, 7, -0.0011444091796875, 
14.734375, -46, 0, 7, -0.017547607421875, 
14.7421875, -67, 2, 7, -0.0255584716796875, 
14.75, -51, 0, 7, -0.0194549560546875, 
14.7578125, -48, 0, 7, -0.018310546875, 
14.765625, -66, 0, 7, -0.025177001953125, 
14.7734375, -80, 0, 7, -0.030517578125, 
14.78125, -74, 0, 7, -0.028228759765625, 
14.7890625, -31, 0, 7, -0.0118255615234375, 
14.796875, 12, 0, 7, 0.00457763671875, 
14.8046875, 27, 0, 7, 0.0102996826171875, 
14.8125, 8, 0, 7, 0.0030517578125, 
14.8203125, -29, 0, 7, -0.0110626220703125, 
14.828125, -64, 0, 7, -0.0244140625, 
14.8359375, -55, 0, 7, -0.0209808349609375, 
14.84375, 10, 0, 7, 0.003814697265625, 
14.8515625, 59, 0, 7, 0.0225067138671875, 
14.859375, 55, 0, 7, 0.0209808349609375, 
14.8671875, 45, 2, 7, 0.0171661376953125, 
14.875, 54, 0, 7, 0.020599365234375, 
14.8828125, 72, 0, 7, 0.0274658203125, 
14.890625, 36, 0, 7, 0.01373291015625, 
14.8984375, -45, 0, 7, -0.0171661376953125, 
14.90625, -97, 0, 7, -0.0370025634765625, 
14.9140625, -76, 0, 7, -0.02899169921875, 
14.921875, -46, 0, 7, -0.017547607421875, 
14.9296875, -19, 0, 7, -0.0072479248046875, 
14.9375, -10, 0, 7, -0.003814697265625, 
14.9453125, -24, 0, 7, -0.0091552734375, 
14.953125, -27, 0, 7, -0.0102996826171875, 
14.9609375, -52, 0, 7, -0.01983642578125, 
14.96875, -92, 0, 7, -0.03509521484375, 
14.9765625, 31, 0, 7, 0.0118255615234375, 
14.984375, 263, 0, 7, 0.100326538085938, 
14.9921875, 299, 2, 7, 0.114059448242188, 
15, -7, 0, 7, -0.0026702880859375, 
15.0078125, -391, 0, 7, -0.149154663085938, 
15.015625, -489, 0, 7, -0.186538696289063, 
15.0234375, -274, 0, 7, -0.104522705078125, 
15.03125, -63, 0, 7, -0.0240325927734375, 
15.0390625, -55, 0, 7, -0.0209808349609375, 
15.046875, -79, 0, 7, -0.0301361083984375, 
15.0546875, -25, 0, 7, -0.0095367431640625, 
15.0625, 27, 0, 7, 0.0102996826171875, 
15.0703125, 51, 0, 7, 0.0194549560546875, 
15.078125, 43, 0, 7, 0.0164031982421875, 
15.0859375, 31, 0, 7, 0.0118255615234375, 
15.09375, 65, 0, 7, 0.0247955322265625, 
15.1015625, 110, 0, 7, 0.041961669921875, 
15.109375, 116, 0, 7, 0.04425048828125, 
15.1171875, 65, 2, 7, 0.0247955322265625, 
15.125, 28, 0, 7, 0.01068115234375, 
15.1328125, 19, 0, 7, 0.0072479248046875, 
15.140625, 10, 0, 7, 0.003814697265625, 
15.1484375, -17, 0, 7, -0.0064849853515625, 
15.15625, -66, 0, 7, -0.025177001953125, 
15.1640625, -47, 0, 7, -0.0179290771484375, 
15.171875, 45, 0, 7, 0.0171661376953125, 
15.1796875, 108, 0, 7, 0.04119873046875, 
15.1875, 142, 0, 7, 0.054168701171875, 
15.1953125, 176, 0, 7, 0.067138671875, 
15.203125, 176, 0, 7, 0.067138671875, 
15.2109375, 101, 0, 7, 0.0385284423828125, 
15.21875, 17, 0, 7, 0.0064849853515625, 
15.2265625, 9, 0, 7, 0.0034332275390625, 
15.234375, 78, 0, 7, 0.029754638671875, 
15.2421875, 177, 2, 7, 0.0675201416015625, 
15.25, 231, 0, 7, 0.0881195068359375, 
15.2578125, 250, 0, 7, 0.095367431640625, 
15.265625, 299, 0, 7, 0.114059448242188, 
15.2734375, 293, 0, 7, 0.111770629882813, 
15.28125, 168, 0, 7, 0.0640869140625, 
15.2890625, 31, 0, 7, 0.0118255615234375, 
15.296875, -37, 0, 7, -0.0141143798828125, 
15.3046875, -51, 0, 7, -0.0194549560546875, 
15.3125, -77, 0, 7, -0.0293731689453125, 
15.3203125, -189, 0, 7, -0.0720977783203125, 
15.328125, -289, 0, 7, -0.110244750976563, 
15.3359375, -265, 0, 7, -0.101089477539063, 
15.34375, -159, 0, 7, -0.0606536865234375, 
15.3515625, -110, 0, 7, -0.041961669921875, 
15.359375, -160, 0, 7, -0.06103515625, 
15.3671875, -261, 2, 7, -0.0995635986328125, 
15.375, -317, 0, 7, -0.120925903320313, 
15.3828125, -266, 0, 7, -0.101470947265625, 
15.390625, -156, 0, 7, -0.05950927734375, 
15.3984375, -93, 0, 7, -0.0354766845703125, 
15.40625, -106, 0, 7, -0.040435791015625, 
15.4140625, -170, 0, 7, -0.064849853515625, 
15.421875, -218, 0, 7, -0.083160400390625, 
15.4296875, -190, 0, 7, -0.072479248046875, 
15.4375, -142, 0, 7, -0.054168701171875, 
15.4453125, -147, 0, 7, -0.0560760498046875, 
15.453125, -176, 0, 7, -0.067138671875, 
15.4609375, -149, 0, 7, -0.0568389892578125, 
15.46875, -99, 0, 7, -0.0377655029296875, 
15.4765625, -86, 0, 7, -0.032806396484375, 
15.484375, -87, 0, 7, -0.0331878662109375, 
15.4921875, -44, 2, 7, -0.01678466796875, 
15.5, 8, 0, 7, 0.0030517578125, 
15.5078125, -35, 0, 7, -0.0133514404296875, 
15.515625, -167, 0, 7, -0.0637054443359375, 
15.5234375, -211, 0, 7, -0.0804901123046875, 
15.53125, -105, 0, 7, -0.0400543212890625, 
15.5390625, 2, 0, 7, 0.000762939453125, 
15.546875, -8, 0, 7, -0.0030517578125, 
15.5546875, -81, 0, 7, -0.0308990478515625, 
15.5625, -106, 0, 7, -0.040435791015625, 
15.5703125, -100, 0, 7, -0.03814697265625, 
15.578125, -101, 0, 7, -0.0385284423828125, 
15.5859375, -120, 0, 7, -0.0457763671875, 
15.59375, -105, 0, 7, -0.0400543212890625, 
15.6015625, -25, 0, 7, -0.0095367431640625, 
15.609375, 22, 0, 7, 0.008392333984375, 
15.6171875, -27, 2, 7, -0.0102996826171875, 
15.625, -98, 0, 7, -0.037384033203125, 
15.6328125, -137, 0, 7, -0.0522613525390625, 
15.640625, -98, 0, 7, -0.037384033203125, 
15.6484375, 17, 0, 7, 0.0064849853515625, 
15.65625, 105, 0, 7, 0.0400543212890625, 
15.6640625, 70, 0, 7, 0.026702880859375, 
15.671875, -49, 0, 7, -0.0186920166015625, 
15.6796875, -107, 0, 7, -0.0408172607421875, 
15.6875, -88, 0, 7, -0.0335693359375, 
15.6953125, -38, 0, 7, -0.014495849609375, 
15.703125, 9, 0, 7, 0.0034332275390625, 
15.7109375, 21, 0, 7, 0.0080108642578125, 
15.71875, -37, 0, 7, -0.0141143798828125, 
15.7265625, -161, 0, 7, -0.0614166259765625, 
15.734375, -228, 0, 7, -0.08697509765625, 
15.7421875, -165, 2, 7, -0.0629425048828125, 
15.75, -61, 0, 7, -0.0232696533203125, 
15.7578125, -47, 0, 7, -0.0179290771484375, 
15.765625, -70, 0, 7, -0.026702880859375, 
15.7734375, -74, 0, 7, -0.028228759765625, 
15.78125, -108, 0, 7, -0.04119873046875, 
15.7890625, -101, 0, 7, -0.0385284423828125, 
15.796875, 35, 0, 7, 0.0133514404296875, 
15.8046875, 136, 0, 7, 0.0518798828125, 
15.8125, -32, 0, 7, -0.01220703125, 
15.8203125, -352, 0, 7, -0.13427734375, 
15.828125, -445, 0, 7, -0.169754028320313, 
15.8359375, -291, 0, 7, -0.111007690429688, 
15.84375, -154, 0, 7, -0.058746337890625, 
15.8515625, -153, 0, 7, -0.0583648681640625, 
15.859375, -167, 0, 7, -0.0637054443359375, 
15.8671875, -91, 2, 7, -0.0347137451171875, 
15.875, -37, 0, 7, -0.0141143798828125, 
15.8828125, -37, 0, 7, -0.0141143798828125, 
15.890625, -32, 0, 7, -0.01220703125, 
15.8984375, -17, 0, 7, -0.0064849853515625, 
15.90625, -10, 0, 7, -0.003814697265625, 
15.9140625, -27, 0, 7, -0.0102996826171875, 
15.921875, -28, 0, 7, -0.01068115234375, 
15.9296875, -3, 0, 7, -0.0011444091796875, 
15.9375, 2, 0, 7, 0.000762939453125, 
15.9453125, -21, 0, 7, -0.0080108642578125, 
15.953125, -56, 0, 7, -0.0213623046875, 
15.9609375, -62, 0, 7, -0.023651123046875, 
15.96875, -19, 0, 7, -0.0072479248046875, 
15.9765625, 40, 0, 7, 0.0152587890625, 
15.984375, 30, 0, 7, 0.011444091796875, 
15.9921875, -80, 2, 7, -0.030517578125, 
16, -145, 0, 7, -0.0553131103515625, 
16.0078125, -95, 0, 7, -0.0362396240234375, 
16.015625, -22, 0, 7, -0.008392333984375, 
16.0234375, 12, 0, 7, 0.00457763671875, 
16.03125, 26, 0, 7, 0.009918212890625, 
16.0390625, 32, 0, 7, 0.01220703125, 
16.046875, 62, 0, 7, 0.023651123046875, 
16.0546875, 109, 0, 7, 0.0415802001953125, 
16.0625, 138, 0, 7, 0.052642822265625, 
16.0703125, 146, 0, 7, 0.055694580078125, 
16.078125, 131, 0, 7, 0.0499725341796875, 
16.0859375, 103, 0, 7, 0.0392913818359375, 
16.09375, 78, 0, 7, 0.029754638671875, 
16.1015625, 33, 0, 7, 0.0125885009765625, 
16.109375, -81, 0, 7, -0.0308990478515625, 
16.1171875, -195, 2, 7, -0.0743865966796875, 
16.125, -200, 0, 7, -0.0762939453125, 
16.1328125, -153, 0, 7, -0.0583648681640625, 
16.140625, -155, 0, 7, -0.0591278076171875, 
16.1484375, -214, 0, 7, -0.081634521484375, 
16.15625, -302, 0, 7, -0.115203857421875, 
16.1640625, -353, 0, 7, -0.134658813476563, 
16.171875, -314, 0, 7, -0.119781494140625, 
16.1796875, -254, 0, 7, -0.096893310546875, 
16.1875, -256, 0, 7, -0.09765625, 
16.1953125, -291, 0, 7, -0.111007690429688, 
16.203125, -315, 0, 7, -0.120162963867188, 
16.2109375, -304, 0, 7, -0.115966796875, 
16.21875, -269, 0, 7, -0.102615356445313, 
16.2265625, -247, 0, 7, -0.0942230224609375, 
16.234375, -240, 0, 7, -0.091552734375, 
16.2421875, -221, 2, 7, -0.0843048095703125, 
16.25, -219, 0, 7, -0.0835418701171875, 
16.2578125, -221, 0, 7, -0.0843048095703125, 
16.265625, -162, 0, 7, -0.061798095703125, 
16.2734375, -71, 0, 7, -0.0270843505859375, 
16.28125, -75, 0, 7, -0.0286102294921875, 
16.2890625, -198, 0, 7, -0.075531005859375, 
16.296875, -336, 0, 7, -0.128173828125, 
16.3046875, -401, 0, 7, -0.152969360351563, 
16.3125, -318, 0, 7, -0.121307373046875, 
16.3203125, -172, 0, 7, -0.06561279296875, 
16.328125, -77, 0, 7, -0.0293731689453125, 
16.3359375, -47, 0, 7, -0.0179290771484375, 
16.34375, -67, 0, 7, -0.0255584716796875, 
16.3515625, -101, 0, 7, -0.0385284423828125, 
16.359375, -131, 0, 7, -0.0499725341796875, 
16.3671875, -150, 2, 7, -0.057220458984375, 
16.375, -182, 0, 7, -0.069427490234375, 
16.3828125, -214, 0, 7, -0.081634521484375, 
16.390625, -192, 0, 7, -0.0732421875, 
16.3984375, -160, 0, 7, -0.06103515625, 
16.40625, -151, 0, 7, -0.0576019287109375, 
16.4140625, -149, 0, 7, -0.0568389892578125, 
16.421875, -165, 0, 7, -0.0629425048828125, 
16.4296875, -195, 0, 7, -0.0743865966796875, 
16.4375, -226, 0, 7, -0.086212158203125, 
16.4453125, -215, 0, 7, -0.0820159912109375, 
16.453125, -136, 0, 7, -0.0518798828125, 
16.4609375, -85, 0, 7, -0.0324249267578125, 
16.46875, -139, 0, 7, -0.0530242919921875, 
16.4765625, -206, 0, 7, -0.078582763671875, 
16.484375, -173, 0, 7, -0.0659942626953125, 
16.4921875, -134, 2, 7, -0.051116943359375, 
16.5, -180, 0, 7, -0.06866455078125, 
16.5078125, -260, 0, 7, -0.09918212890625, 
16.515625, -248, 0, 7, -0.0946044921875, 
16.5234375, -141, 0, 7, -0.0537872314453125, 
16.53125, -66, 0, 7, -0.025177001953125, 
16.5390625, -79, 0, 7, -0.0301361083984375, 
16.546875, -126, 0, 7, -0.048065185546875, 
16.5546875, -158, 0, 7, -0.060272216796875, 
16.5625, -166, 0, 7, -0.063323974609375, 
16.5703125, -117, 0, 7, -0.0446319580078125, 
16.578125, -33, 0, 7, -0.0125885009765625, 
16.5859375, 5, 0, 7, 0.0019073486328125, 
16.59375, -22, 0, 7, -0.008392333984375, 
16.6015625, -113, 0, 7, -0.0431060791015625, 
16.609375, -201, 0, 7, -0.0766754150390625, 
16.6171875, -202, 2, 7, -0.077056884765625, 
16.625, -186, 0, 7, -0.070953369140625, 
16.6328125, -190, 0, 7, -0.072479248046875, 
16.640625, -197, 0, 7, -0.0751495361328125, 
16.6484375, -203, 0, 7, -0.0774383544921875, 
16.65625, -182, 0, 7, -0.069427490234375, 
16.6640625, -142, 0, 7, -0.054168701171875, 
16.671875, -131, 0, 7, -0.0499725341796875, 
16.6796875, -90, 0, 7, -0.034332275390625, 
16.6875, 13, 0, 7, 0.0049591064453125, 
16.6953125, 92, 0, 7, 0.03509521484375, 
16.703125, 32, 0, 7, 0.01220703125, 
16.7109375, -167, 0, 7, -0.0637054443359375, 
16.71875, -404, 0, 7, -0.15411376953125, 
16.7265625, -488, 0, 7, -0.1861572265625, 
16.734375, -386, 0, 7, -0.147247314453125, 
16.7421875, -249, 2, 7, -0.0949859619140625, 
16.75, -168, 0, 7, -0.0640869140625, 
16.7578125, -127, 0, 7, -0.0484466552734375, 
16.765625, -117, 0, 7, -0.0446319580078125, 
16.7734375, -124, 0, 7, -0.04730224609375, 
16.78125, -115, 0, 7, -0.0438690185546875, 
16.7890625, -49, 0, 7, -0.0186920166015625, 
16.796875, 38, 0, 7, 0.014495849609375, 
16.8046875, 30, 0, 7, 0.011444091796875, 
16.8125, -76, 0, 7, -0.02899169921875, 
16.8203125, -128, 0, 7, -0.048828125, 
16.828125, -34, 0, 7, -0.012969970703125, 
16.8359375, 55, 0, 7, 0.0209808349609375, 
16.84375, 32, 0, 7, 0.01220703125, 
16.8515625, 2, 0, 7, 0.000762939453125, 
16.859375, 59, 0, 7, 0.0225067138671875, 
16.8671875, 137, 2, 7, 0.0522613525390625, 
16.875, 101, 0, 7, 0.0385284423828125, 
16.8828125, 10, 0, 7, 0.003814697265625, 
16.890625, 15, 0, 7, 0.0057220458984375, 
16.8984375, 82, 0, 7, 0.031280517578125, 
16.90625, 114, 0, 7, 0.043487548828125, 
16.9140625, 87, 0, 7, 0.0331878662109375, 
16.921875, 47, 0, 7, 0.0179290771484375, 
16.9296875, 82, 0, 7, 0.031280517578125, 
16.9375, 194, 0, 7, 0.074005126953125, 
16.9453125, 293, 0, 7, 0.111770629882813, 
16.953125, 294, 0, 7, 0.112152099609375, 
16.9609375, 218, 0, 7, 0.083160400390625, 
16.96875, 182, 0, 7, 0.069427490234375, 
16.9765625, 211, 0, 7, 0.0804901123046875, 
16.984375, 249, 0, 7, 0.0949859619140625, 
16.9921875, 226, 2, 7, 0.086212158203125, 
17, 139, 0, 7, 0.0530242919921875, 
17.0078125, 38, 0, 7, 0.014495849609375, 
17.015625, -60, 0, 7, -0.02288818359375, 
17.0234375, -139, 0, 7, -0.0530242919921875, 
17.03125, -163, 0, 7, -0.0621795654296875, 
17.0390625, -177, 0, 7, -0.0675201416015625, 
17.046875, -182, 0, 7, -0.069427490234375, 
17.0546875, -180, 0, 7, -0.06866455078125, 
17.0625, -201, 0, 7, -0.0766754150390625, 
17.0703125, -227, 0, 7, -0.0865936279296875, 
17.078125, -204, 0, 7, -0.07781982421875, 
17.0859375, -127, 0, 7, -0.0484466552734375, 
17.09375, -80, 0, 7, -0.030517578125, 
17.1015625, -125, 0, 7, -0.0476837158203125, 
17.109375, -208, 0, 7, -0.079345703125, 
17.1171875, -255, 2, 7, -0.0972747802734375, 
17.125, -242, 0, 7, -0.092315673828125, 
17.1328125, -193, 0, 7, -0.0736236572265625, 
17.140625, -121, 0, 7, -0.0461578369140625, 
17.1484375, -34, 0, 7, -0.012969970703125, 
17.15625, -31, 0, 7, -0.0118255615234375, 
17.1640625, -99, 0, 7, -0.0377655029296875, 
17.171875, -81, 0, 7, -0.0308990478515625, 
17.1796875, 27, 0, 7, 0.0102996826171875, 
17.1875, 105, 0, 7, 0.0400543212890625, 
17.1953125, 55, 0, 7, 0.0209808349609375, 
17.203125, -71, 0, 7, -0.0270843505859375, 
17.2109375, -110, 0, 7, -0.041961669921875, 
17.21875, -39, 0, 7, -0.0148773193359375, 
17.2265625, 15, 0, 7, 0.0057220458984375, 
17.234375, -9, 0, 7, -0.0034332275390625, 
17.2421875, -58, 2, 7, -0.022125244140625, 
17.25, -98, 0, 7, -0.037384033203125, 
17.2578125, -112, 0, 7, -0.042724609375, 
17.265625, -71, 0, 7, -0.0270843505859375, 
17.2734375, -19, 0, 7, -0.0072479248046875, 
17.28125, -13, 0, 7, -0.0049591064453125, 
17.2890625, -13, 0, 7, -0.0049591064453125, 
17.296875, -13, 0, 7, -0.0049591064453125, 
17.3046875, -39, 0, 7, -0.0148773193359375, 
17.3125, -76, 0, 7, -0.02899169921875, 
17.3203125, -78, 0, 7, -0.029754638671875, 
17.328125, -53, 0, 7, -0.0202178955078125, 
17.3359375, -17, 0, 7, -0.0064849853515625, 
17.34375, -32, 0, 7, -0.01220703125, 
17.3515625, -102, 0, 7, -0.038909912109375, 
17.359375, -115, 0, 7, -0.0438690185546875, 
17.3671875, -43, 2, 7, -0.0164031982421875, 
17.375, 36, 0, 7, 0.01373291015625, 
17.3828125, 53, 0, 7, 0.0202178955078125, 
17.390625, -23, 0, 7, -0.0087738037109375, 
17.3984375, -103, 0, 7, -0.0392913818359375, 
17.40625, -89, 0, 7, -0.0339508056640625, 
17.4140625, 8, 0, 7, 0.0030517578125, 
17.421875, 60, 0, 7, 0.02288818359375, 
17.4296875, 18, 0, 7, 0.006866455078125, 
17.4375, -55, 0, 7, -0.0209808349609375, 
17.4453125, -71, 0, 7, -0.0270843505859375, 
17.453125, -57, 0, 7, -0.0217437744140625, 
17.4609375, -72, 0, 7, -0.0274658203125, 
17.46875, -124, 0, 7, -0.04730224609375, 
17.4765625, -159, 0, 7, -0.0606536865234375, 
17.484375, -150, 0, 7, -0.057220458984375, 
17.4921875, -80, 2, 7, -0.030517578125, 
17.5, 1, 0, 7, 0.0003814697265625, 
17.5078125, -11, 0, 7, -0.0041961669921875, 
17.515625, -18, 0, 7, -0.006866455078125, 
17.5234375, 129, 0, 7, 0.0492095947265625, 
17.53125, 234, 0, 7, 0.089263916015625, 
17.5390625, 93, 0, 7, 0.0354766845703125, 
17.546875, -251, 0, 7, -0.0957489013671875, 
17.5546875, -490, 0, 7, -0.186920166015625, 
17.5625, -386, 0, 7, -0.147247314453125, 
17.5703125, -134, 0, 7, -0.051116943359375, 
17.578125, -18, 0, 7, -0.006866455078125, 
17.5859375, -44, 0, 7, -0.01678466796875, 
17.59375, -52, 0, 7, -0.01983642578125, 
17.6015625, -23, 0, 7, -0.0087738037109375, 
17.609375, -17, 0, 7, -0.0064849853515625, 
17.6171875, 35, 2, 7, 0.0133514404296875, 
17.625, 110, 0, 7, 0.041961669921875, 
17.6328125, 127, 0, 7, 0.0484466552734375, 
17.640625, 79, 0, 7, 0.0301361083984375, 
17.6484375, 29, 0, 7, 0.0110626220703125, 
17.65625, 61, 0, 7, 0.0232696533203125, 
17.6640625, 110, 0, 7, 0.041961669921875, 
17.671875, 117, 0, 7, 0.0446319580078125, 
17.6796875, 83, 0, 7, 0.0316619873046875, 
17.6875, 41, 0, 7, 0.0156402587890625, 
17.6953125, 37, 0, 7, 0.0141143798828125, 
17.703125, 63, 0, 7, 0.0240325927734375, 
17.7109375, 139, 0, 7, 0.0530242919921875, 
17.71875, 238, 0, 7, 0.090789794921875, 
17.7265625, 238, 0, 7, 0.090789794921875, 
17.734375, 136, 0, 7, 0.0518798828125, 
17.7421875, 63, 2, 7, 0.0240325927734375, 
17.75, 134, 0, 7, 0.051116943359375, 
17.7578125, 296, 0, 7, 0.1129150390625, 
17.765625, 343, 0, 7, 0.130844116210938, 
17.7734375, 236, 0, 7, 0.09002685546875, 
17.78125, 177, 0, 7, 0.0675201416015625, 
17.7890625, 259, 0, 7, 0.0988006591796875, 
17.796875, 371, 0, 7, 0.141525268554688, 
17.8046875, 424, 0, 7, 0.1617431640625, 
17.8125, 407, 0, 7, 0.155258178710938, 
17.8203125, 320, 0, 7, 0.1220703125, 
17.828125, 206, 0, 7, 0.078582763671875, 
17.8359375, 78, 0, 7, 0.029754638671875, 
17.84375, -15, 0, 7, -0.0057220458984375, 
17.8515625, -4, 0, 7, -0.00152587890625, 
17.859375, 11, 0, 7, 0.0041961669921875, 
17.8671875, -67, 2, 7, -0.0255584716796875, 
17.875, -158, 0, 7, -0.060272216796875, 
17.8828125, -212, 0, 7, -0.08087158203125, 
17.890625, -237, 0, 7, -0.0904083251953125, 
17.8984375, -190, 0, 7, -0.072479248046875, 
17.90625, -91, 0, 7, -0.0347137451171875, 
17.9140625, -29, 0, 7, -0.0110626220703125, 
17.921875, -53, 0, 7, -0.0202178955078125, 
17.9296875, -156, 0, 7, -0.05950927734375, 
17.9375, -227, 0, 7, -0.0865936279296875, 
17.9453125, -182, 0, 7, -0.069427490234375, 
17.953125, -85, 0, 7, -0.0324249267578125, 
17.9609375, -62, 0, 7, -0.023651123046875, 
17.96875, -81, 0, 7, -0.0308990478515625, 
17.9765625, -75, 0, 7, -0.0286102294921875, 
17.984375, -38, 0, 7, -0.014495849609375, 
17.9921875, -13, 2, 7, -0.0049591064453125, 
18, -53, 0, 7, -0.0202178955078125, 
18.0078125, -85, 0, 7, -0.0324249267578125, 
18.015625, -44, 0, 7, -0.01678466796875, 
18.0234375, 16, 0, 7, 0.006103515625, 
18.03125, 17, 0, 7, 0.0064849853515625, 
18.0390625, -18, 0, 7, -0.006866455078125, 
18.046875, -10, 0, 7, -0.003814697265625, 
18.0546875, 9, 0, 7, 0.0034332275390625, 
18.0625, -3, 0, 7, -0.0011444091796875, 
18.0703125, -56, 0, 7, -0.0213623046875, 
18.078125, -86, 0, 7, -0.032806396484375, 
18.0859375, -53, 0, 7, -0.0202178955078125, 
18.09375, -14, 0, 7, -0.005340576171875, 
18.1015625, 21, 0, 7, 0.0080108642578125, 
18.109375, 17, 0, 7, 0.0064849853515625, 
18.1171875, -52, 2, 7, -0.01983642578125, 
18.125, -79, 0, 7, -0.0301361083984375, 
18.1328125, -5, 0, 7, -0.0019073486328125, 
18.140625, 102, 0, 7, 0.038909912109375, 
18.1484375, 92, 0, 7, 0.03509521484375, 
18.15625, -47, 0, 7, -0.0179290771484375, 
18.1640625, -142, 0, 7, -0.054168701171875, 
18.171875, -105, 0, 7, -0.0400543212890625, 
18.1796875, -31, 0, 7, -0.0118255615234375, 
18.1875, -17, 0, 7, -0.0064849853515625, 
18.1953125, 8, 0, 7, 0.0030517578125, 
18.203125, 88, 0, 7, 0.0335693359375, 
18.2109375, 121, 0, 7, 0.0461578369140625, 
18.21875, 70, 0, 7, 0.026702880859375, 
18.2265625, -1, 0, 7, -0.0003814697265625, 
18.234375, -47, 0, 7, -0.0179290771484375, 
18.2421875, -103, 2, 7, -0.0392913818359375, 
18.25, -169, 0, 7, -0.0644683837890625, 
18.2578125, -154, 0, 7, -0.058746337890625, 
18.265625, -103, 0, 7, -0.0392913818359375, 
18.2734375, -84, 0, 7, -0.03204345703125, 
18.28125, -89, 0, 7, -0.0339508056640625, 
18.2890625, -55, 0, 7, -0.0209808349609375, 
18.296875, 93, 0, 7, 0.0354766845703125, 
18.3046875, 259, 0, 7, 0.0988006591796875, 
18.3125, 240, 0, 7, 0.091552734375, 
18.3203125, -14, 0, 7, -0.005340576171875, 
18.328125, -327, 0, 7, -0.124740600585938, 
18.3359375, -474, 0, 7, -0.180816650390625, 
18.34375, -427, 0, 7, -0.162887573242188, 
18.3515625, -288, 0, 7, -0.10986328125, 
18.359375, -183, 0, 7, -0.0698089599609375, 
18.3671875, -120, 2, 7, -0.0457763671875, 
18.375, -37, 0, 7, -0.0141143798828125, 
18.3828125, 10, 0, 7, 0.003814697265625, 
18.390625, -5, 0, 7, -0.0019073486328125, 
18.3984375, 0, 0, 7, 0, 
18.40625, 4, 0, 7, 0.00152587890625, 
18.4140625, -16, 0, 7, -0.006103515625, 
18.421875, 0, 0, 7, 0, 
18.4296875, 48, 0, 7, 0.018310546875, 
18.4375, 57, 0, 7, 0.0217437744140625, 
18.4453125, 13, 0, 7, 0.0049591064453125, 
18.453125, -37, 0, 7, -0.0141143798828125, 
18.4609375, -49, 0, 7, -0.0186920166015625, 
18.46875, 16, 0, 7, 0.006103515625, 
18.4765625, 75, 0, 7, 0.0286102294921875, 
18.484375, 43, 0, 7, 0.0164031982421875, 
18.4921875, -37, 2, 7, -0.0141143798828125, 
18.5, -72, 0, 7, -0.0274658203125, 
18.5078125, 2, 0, 7, 0.000762939453125, 
18.515625, 138, 0, 7, 0.052642822265625, 
18.5234375, 175, 0, 7, 0.0667572021484375, 
18.53125, 97, 0, 7, 0.0370025634765625, 
18.5390625, 66, 0, 7, 0.025177001953125, 
18.546875, 130, 0, 7, 0.049591064453125, 
18.5546875, 175, 0, 7, 0.0667572021484375, 
18.5625, 178, 0, 7, 0.067901611328125, 
18.5703125, 164, 0, 7, 0.06256103515625, 
18.578125, 186, 0, 7, 0.070953369140625, 
18.5859375, 267, 0, 7, 0.101852416992188, 
18.59375, 288, 0, 7, 0.10986328125, 
18.6015625, 225, 0, 7, 0.0858306884765625, 
18.609375, 171, 0, 7, 0.0652313232421875, 
18.6171875, 120, 2, 7, 0.0457763671875, 
18.625, 18, 0, 7, 0.006866455078125, 
18.6328125, -119, 0, 7, -0.0453948974609375, 
18.640625, -204, 0, 7, -0.07781982421875, 
18.6484375, -192, 0, 7, -0.0732421875, 
18.65625, -179, 0, 7, -0.0682830810546875, 
18.6640625, -234, 0, 7, -0.089263916015625, 
18.671875, -279, 0, 7, -0.106430053710938, 
18.6796875, -238, 0, 7, -0.090789794921875, 
18.6875, -192, 0, 7, -0.0732421875, 
18.6953125, -200, 0, 7, -0.0762939453125, 
18.703125, -230, 0, 7, -0.087738037109375, 
18.7109375, -265, 0, 7, -0.101089477539063, 
18.71875, -260, 0, 7, -0.09918212890625, 
18.7265625, -200, 0, 7, -0.0762939453125, 
18.734375, -116, 0, 7, -0.04425048828125, 
18.7421875, -83, 2, 7, -0.0316619873046875, 
18.75, -107, 0, 7, -0.0408172607421875, 
18.7578125, -112, 0, 7, -0.042724609375, 
18.765625, -61, 0, 7, -0.0232696533203125, 
18.7734375, -38, 0, 7, -0.014495849609375, 
18.78125, -102, 0, 7, -0.038909912109375, 
18.7890625, -149, 0, 7, -0.0568389892578125, 
18.796875, -89, 0, 7, -0.0339508056640625, 
18.8046875, -30, 0, 7, -0.011444091796875, 
18.8125, -69, 0, 7, -0.0263214111328125, 
18.8203125, -124, 0, 7, -0.04730224609375, 
18.828125, -90, 0, 7, -0.034332275390625, 
18.8359375, -24, 0, 7, -0.0091552734375, 
18.84375, -30, 0, 7, -0.011444091796875, 
18.8515625, -100, 0, 7, -0.03814697265625, 
18.859375, -139, 0, 7, -0.0530242919921875, 
18.8671875, -98, 2, 7, -0.037384033203125, 
18.875, -24, 0, 7, -0.0091552734375, 
18.8828125, 30, 0, 7, 0.011444091796875, 
18.890625, 25, 0, 7, 0.0095367431640625, 
18.8984375, -29, 0, 7, -0.0110626220703125, 
18.90625, -100, 0, 7, -0.03814697265625, 
18.9140625, -136, 0, 7, -0.0518798828125, 
18.921875, -111, 0, 7, -0.0423431396484375, 
18.9296875, -36, 0, 7, -0.01373291015625, 
18.9375, 18, 0, 7, 0.006866455078125, 
18.9453125, -15, 0, 7, -0.0057220458984375, 
18.953125, -73, 0, 7, -0.0278472900390625, 
18.9609375, -95, 0, 7, -0.0362396240234375, 
18.96875, -102, 0, 7, -0.038909912109375, 
18.9765625, -98, 0, 7, -0.037384033203125, 
18.984375, -82, 0, 7, -0.031280517578125, 
18.9921875, -29, 2, 7, -0.0110626220703125, 
19, 84, 0, 7, 0.03204345703125, 
19.0078125, 139, 0, 7, 0.0530242919921875, 
19.015625, 42, 0, 7, 0.016021728515625, 
19.0234375, -71, 0, 7, -0.0270843505859375, 
19.03125, -59, 0, 7, -0.0225067138671875, 
19.0390625, 5, 0, 7, 0.0019073486328125, 
19.046875, 49, 0, 7, 0.0186920166015625, 
19.0546875, 1, 0, 7, 0.0003814697265625, 
19.0625, -107, 0, 7, -0.0408172607421875, 
19.0703125, -102, 0, 7, -0.038909912109375, 
19.078125, -31, 0, 7, -0.0118255615234375, 
19.0859375, -60, 0, 7, -0.02288818359375, 
19.09375, -153, 0, 7, -0.0583648681640625, 
19.1015625, -167, 0, 7, -0.0637054443359375, 
19.109375, -102, 0, 7, -0.038909912109375, 
19.1171875, -24, 2, 7, -0.0091552734375, 
19.125, 2, 0, 7, 0.000762939453125, 
19.1328125, -51, 0, 7, -0.0194549560546875, 
19.140625, -58, 0, 7, -0.022125244140625, 
19.1484375, 50, 0, 7, 0.019073486328125, 
19.15625, 131, 0, 7, 0.0499725341796875, 
19.1640625, 71, 0, 7, 0.0270843505859375, 
19.171875, -122, 0, 7, -0.046539306640625, 
19.1796875, -301, 0, 7, -0.114822387695313, 
19.1875, -324, 0, 7, -0.12359619140625, 
19.1953125, -232, 0, 7, -0.0885009765625, 
19.203125, -159, 0, 7, -0.0606536865234375, 
19.2109375, -124, 0, 7, -0.04730224609375, 
19.21875, -29, 0, 7, -0.0110626220703125, 
19.2265625, 53, 0, 7, 0.0202178955078125, 
19.234375, 35, 0, 7, 0.0133514404296875, 
19.2421875, 8, 2, 7, 0.0030517578125, 
19.25, -5, 0, 7, -0.0019073486328125, 
19.2578125, -26, 0, 7, -0.009918212890625, 
19.265625, -38, 0, 7, -0.014495849609375, 
19.2734375, -25, 0, 7, -0.0095367431640625, 
19.28125, 5, 0, 7, 0.0019073486328125, 
19.2890625, -1, 0, 7, -0.0003814697265625, 
19.296875, -29, 0, 7, -0.0110626220703125, 
19.3046875, -12, 0, 7, -0.00457763671875, 
19.3125, 107, 0, 7, 0.0408172607421875, 
19.3203125, 242, 0, 7, 0.092315673828125, 
19.328125, 206, 0, 7, 0.078582763671875, 
19.3359375, 58, 0, 7, 0.022125244140625, 
19.34375, -27, 0, 7, -0.0102996826171875, 
19.3515625, 30, 0, 7, 0.011444091796875, 
19.359375, 154, 0, 7, 0.058746337890625, 
19.3671875, 195, 2, 7, 0.0743865966796875, 
19.375, 151, 0, 7, 0.0576019287109375, 
19.3828125, 87, 0, 7, 0.0331878662109375, 
19.390625, 60, 0, 7, 0.02288818359375, 
19.3984375, 110, 0, 7, 0.041961669921875, 
19.40625, 235, 0, 7, 0.0896453857421875, 
19.4140625, 350, 0, 7, 0.133514404296875, 
19.421875, 347, 0, 7, 0.132369995117188, 
19.4296875, 281, 0, 7, 0.107192993164063, 
19.4375, 254, 0, 7, 0.096893310546875, 
19.4453125, 276, 0, 7, 0.10528564453125, 
19.453125, 292, 0, 7, 0.11138916015625, 
19.4609375, 212, 0, 7, 0.08087158203125, 
19.46875, 60, 0, 7, 0.02288818359375, 
19.4765625, -40, 0, 7, -0.0152587890625, 
19.484375, -53, 0, 7, -0.0202178955078125, 
19.4921875, -40, 2, 7, -0.0152587890625, 
19.5, -77, 0, 7, -0.0293731689453125, 
19.5078125, -179, 0, 7, -0.0682830810546875, 
19.515625, -271, 0, 7, -0.103378295898438, 
19.5234375, -270, 0, 7, -0.102996826171875, 
19.53125, -226, 0, 7, -0.086212158203125, 
19.5390625, -174, 0, 7, -0.066375732421875, 
19.546875, -96, 0, 7, -0.03662109375, 
19.5546875, -69, 0, 7, -0.0263214111328125, 
19.5625, -135, 0, 7, -0.0514984130859375, 
19.5703125, -157, 0, 7, -0.0598907470703125, 
19.578125, -101, 0, 7, -0.0385284423828125, 
19.5859375, -58, 0, 7, -0.022125244140625, 
19.59375, -47, 0, 7, -0.0179290771484375, 
19.6015625, -54, 0, 7, -0.020599365234375, 
19.609375, -84, 0, 7, -0.03204345703125, 
19.6171875, -79, 2, 7, -0.0301361083984375, 
19.625, -59, 0, 7, -0.0225067138671875, 
19.6328125, -52, 0, 7, -0.01983642578125, 
19.640625, -29, 0, 7, -0.0110626220703125, 
19.6484375, 6, 0, 7, 0.002288818359375, 
19.65625, 33, 0, 7, 0.0125885009765625, 
19.6640625, 44, 0, 7, 0.01678466796875, 
19.671875, 24, 0, 7, 0.0091552734375, 
19.6796875, -22, 0, 7, -0.008392333984375, 
19.6875, -6, 0, 7, -0.002288818359375, 
19.6953125, 86, 0, 7, 0.032806396484375, 
19.703125, 102, 0, 7, 0.038909912109375, 
19.7109375, 19, 0, 7, 0.0072479248046875, 
19.71875, -68, 0, 7, -0.02593994140625, 
19.7265625, -83, 0, 7, -0.0316619873046875, 
19.734375, -27, 0, 7, -0.0102996826171875, 
19.7421875, 36, 2, 7, 0.01373291015625, 
19.75, 67, 0, 7, 0.0255584716796875, 
19.7578125, 71, 0, 7, 0.0270843505859375, 
19.765625, 76, 0, 7, 0.02899169921875, 
19.7734375, 66, 0, 7, 0.025177001953125, 
19.78125, 54, 0, 7, 0.020599365234375, 
19.7890625, 71, 0, 7, 0.0270843505859375, 
19.796875, 88, 0, 7, 0.0335693359375, 
19.8046875, 66, 0, 7, 0.025177001953125, 
19.8125, -8, 0, 7, -0.0030517578125, 
19.8203125, -52, 0, 7, -0.01983642578125, 
19.828125, 1, 0, 7, 0.0003814697265625, 
19.8359375, 68, 0, 7, 0.02593994140625, 
19.84375, 69, 0, 7, 0.0263214111328125, 
19.8515625, 31, 0, 7, 0.0118255615234375, 
19.859375, 52, 0, 7, 0.01983642578125, 
19.8671875, 115, 2, 7, 0.0438690185546875, 
19.875, 118, 0, 7, 0.045013427734375, 
19.8828125, 59, 0, 7, 0.0225067138671875, 
19.890625, 28, 0, 7, 0.01068115234375, 
19.8984375, 94, 0, 7, 0.035858154296875, 
19.90625, 177, 0, 7, 0.0675201416015625, 
19.9140625, 168, 0, 7, 0.0640869140625, 
19.921875, 110, 0, 7, 0.041961669921875, 
19.9296875, 69, 0, 7, 0.0263214111328125, 
19.9375, 71, 0, 7, 0.0270843505859375, 
19.9453125, 53, 0, 7, 0.0202178955078125, 
19.953125, 7, 0, 7, 0.0026702880859375, 
19.9609375, 6, 0, 7, 0.002288818359375, 
19.96875, 45, 0, 7, 0.0171661376953125, 
19.9765625, 52, 0, 7, 0.01983642578125, 
19.984375, 22, 0, 7, 0.008392333984375, 
19.9921875, 25, 2, 7, 0.0095367431640625, 
20, 69, 0, 7, 0.0263214111328125, 
20.0078125, 107, 0, 7, 0.0408172607421875, 
20.015625, 153, 0, 7, 0.0583648681640625, 
20.0234375, 226, 0, 7, 0.086212158203125, 
20.03125, 252, 0, 7, 0.09613037109375, 
20.0390625, 99, 0, 7, 0.0377655029296875, 
20.046875, -172, 0, 7, -0.06561279296875, 
20.0546875, -313, 0, 7, -0.119400024414063, 
20.0625, -208, 0, 7, -0.079345703125, 
20.0703125, -44, 0, 7, -0.01678466796875, 
20.078125, 15, 0, 7, 0.0057220458984375, 
20.0859375, 12, 0, 7, 0.00457763671875, 
20.09375, 37, 0, 7, 0.0141143798828125, 
20.1015625, 102, 0, 7, 0.038909912109375, 
20.109375, 121, 0, 7, 0.0461578369140625, 
20.1171875, 81, 2, 7, 0.0308990478515625, 
20.125, 68, 0, 7, 0.02593994140625, 
20.1328125, 101, 0, 7, 0.0385284423828125, 
20.140625, 111, 0, 7, 0.0423431396484375, 
20.1484375, 67, 0, 7, 0.0255584716796875, 
20.15625, 54, 0, 7, 0.020599365234375, 
20.1640625, 129, 0, 7, 0.0492095947265625, 
20.171875, 148, 0, 7, 0.05645751953125, 
20.1796875, 98, 0, 7, 0.037384033203125, 
20.1875, 137, 0, 7, 0.0522613525390625, 
20.1953125, 248, 0, 7, 0.0946044921875, 
20.203125, 267, 0, 7, 0.101852416992188, 
20.2109375, 146, 0, 7, 0.055694580078125, 
20.21875, 15, 0, 7, 0.0057220458984375, 
20.2265625, -1, 0, 7, -0.0003814697265625, 
20.234375, 101, 0, 7, 0.0385284423828125, 
20.2421875, 200, 2, 7, 0.0762939453125, 
20.25, 210, 0, 7, 0.080108642578125, 
20.2578125, 203, 0, 7, 0.0774383544921875, 
20.265625, 213, 0, 7, 0.0812530517578125, 
20.2734375, 268, 0, 7, 0.10223388671875, 
20.28125, 405, 0, 7, 0.154495239257813, 
20.2890625, 473, 0, 7, 0.180435180664063, 
20.296875, 408, 0, 7, 0.1556396484375, 
20.3046875, 303, 0, 7, 0.115585327148438, 
20.3125, 259, 0, 7, 0.0988006591796875, 
20.3203125, 258, 0, 7, 0.098419189453125, 
20.328125, 300, 0, 7, 0.11444091796875, 
20.3359375, 330, 0, 7, 0.125885009765625, 
20.34375, 216, 0, 7, 0.0823974609375, 
20.3515625, 25, 0, 7, 0.0095367431640625, 
20.359375, -111, 0, 7, -0.0423431396484375, 
20.3671875, -154, 2, 7, -0.058746337890625, 
20.375, -115, 0, 7, -0.0438690185546875, 
20.3828125, -70, 0, 7, -0.026702880859375, 
20.390625, -74, 0, 7, -0.028228759765625, 
20.3984375, -135, 0, 7, -0.0514984130859375, 
20.40625, -233, 0, 7, -0.0888824462890625, 
20.4140625, -277, 0, 7, -0.105667114257813, 
20.421875, -200, 0, 7, -0.0762939453125, 
20.4296875, -98, 0, 7, -0.037384033203125, 
20.4375, -91, 0, 7, -0.0347137451171875, 
20.4453125, -103, 0, 7, -0.0392913818359375, 
20.453125, -68, 0, 7, -0.02593994140625, 
20.4609375, -62, 0, 7, -0.023651123046875, 
20.46875, -87, 0, 7, -0.0331878662109375, 
20.4765625, -104, 0, 7, -0.0396728515625, 
20.484375, -60, 0, 7, -0.02288818359375, 
20.4921875, 36, 2, 7, 0.01373291015625, 
20.5, 28, 0, 7, 0.01068115234375, 
20.5078125, -124, 0, 7, -0.04730224609375, 
20.515625, -178, 0, 7, -0.067901611328125, 
20.5234375, -78, 0, 7, -0.029754638671875, 
20.53125, 26, 0, 7, 0.009918212890625, 
20.5390625, 47, 0, 7, 0.0179290771484375, 
20.546875, 3, 0, 7, 0.0011444091796875, 
20.5546875, -8, 0, 7, -0.0030517578125, 
20.5625, 54, 0, 7, 0.020599365234375, 
20.5703125, 45, 0, 7, 0.0171661376953125, 
20.578125, -89, 0, 7, -0.0339508056640625, 
20.5859375, -163, 0, 7, -0.0621795654296875, 
20.59375, -99, 0, 7, -0.0377655029296875, 
20.6015625, -54, 0, 7, -0.020599365234375, 
20.609375, -26, 0, 7, -0.009918212890625, 
20.6171875, 30, 2, 7, 0.011444091796875, 
20.625, 57, 0, 7, 0.0217437744140625, 
20.6328125, 41, 0, 7, 0.0156402587890625, 
20.640625, 1, 0, 7, 0.0003814697265625, 
20.6484375, -72, 0, 7, -0.0274658203125, 
20.65625, -91, 0, 7, -0.0347137451171875, 
20.6640625, -26, 0, 7, -0.009918212890625, 
20.671875, 16, 0, 7, 0.006103515625, 
20.6796875, -4, 0, 7, -0.00152587890625, 
20.6875, -29, 0, 7, -0.0110626220703125, 
20.6953125, -31, 0, 7, -0.0118255615234375, 
20.703125, -9, 0, 7, -0.0034332275390625, 
20.7109375, 15, 0, 7, 0.0057220458984375, 
20.71875, -4, 0, 7, -0.00152587890625, 
20.7265625, -48, 0, 7, -0.018310546875, 
20.734375, -67, 0, 7, -0.0255584716796875, 
20.7421875, -76, 2, 7, -0.02899169921875, 
20.75, -82, 0, 7, -0.031280517578125, 
20.7578125, -75, 0, 7, -0.0286102294921875, 
20.765625, -84, 0, 7, -0.03204345703125, 
20.7734375, -112, 0, 7, -0.042724609375, 
20.78125, -122, 0, 7, -0.046539306640625, 
20.7890625, -127, 0, 7, -0.0484466552734375, 
20.796875, -152, 0, 7, -0.0579833984375, 
20.8046875, -178, 0, 7, -0.067901611328125, 
20.8125, -199, 0, 7, -0.0759124755859375, 
20.8203125, -179, 0, 7, -0.0682830810546875, 
20.828125, -71, 0, 7, -0.0270843505859375, 
20.8359375, 58, 0, 7, 0.022125244140625, 
20.84375, 28, 0, 7, 0.01068115234375, 
20.8515625, -216, 0, 7, -0.0823974609375, 
20.859375, -456, 0, 7, -0.1739501953125, 
20.8671875, -448, 2, 7, -0.1708984375, 
20.875, -260, 0, 7, -0.09918212890625, 
20.8828125, -159, 0, 7, -0.0606536865234375, 
20.890625, -215, 0, 7, -0.0820159912109375, 
20.8984375, -265, 0, 7, -0.101089477539063, 
20.90625, -235, 0, 7, -0.0896453857421875, 
20.9140625, -163, 0, 7, -0.0621795654296875, 
20.921875, -111, 0, 7, -0.0423431396484375, 
20.9296875, -105, 0, 7, -0.0400543212890625, 
20.9375, -114, 0, 7, -0.043487548828125, 
20.9453125, -95, 0, 7, -0.0362396240234375, 
20.953125, -28, 0, 7, -0.01068115234375, 
20.9609375, 34, 0, 7, 0.012969970703125, 
20.96875, -4, 0, 7, -0.00152587890625, 
20.9765625, -105, 0, 7, -0.0400543212890625, 
20.984375, -128, 0, 7, -0.048828125, 
20.9921875, -59, 2, 7, -0.0225067138671875, 
21, 0, 0, 7, 0, 
21.0078125, -10, 0, 7, -0.003814697265625, 
21.015625, -67, 0, 7, -0.0255584716796875, 
21.0234375, -115, 0, 7, -0.0438690185546875, 
21.03125, -100, 0, 7, -0.03814697265625, 
21.0390625, -39, 0, 7, -0.0148773193359375, 
21.046875, -23, 0, 7, -0.0087738037109375, 
21.0546875, -29, 0, 7, -0.0110626220703125, 
21.0625, -2, 0, 7, -0.000762939453125, 
21.0703125, 76, 0, 7, 0.02899169921875, 
21.078125, 156, 0, 7, 0.05950927734375, 
21.0859375, 133, 0, 7, 0.0507354736328125, 
21.09375, 81, 0, 7, 0.0308990478515625, 
21.1015625, 106, 0, 7, 0.040435791015625, 
21.109375, 163, 0, 7, 0.0621795654296875, 
21.1171875, 169, 2, 7, 0.0644683837890625, 
21.125, 105, 0, 7, 0.0400543212890625, 
21.1328125, 62, 0, 7, 0.023651123046875, 
21.140625, 13, 0, 7, 0.0049591064453125, 
21.1484375, -105, 0, 7, -0.0400543212890625, 
21.15625, -235, 0, 7, -0.0896453857421875, 
21.1640625, -319, 0, 7, -0.121688842773438, 
21.171875, -326, 0, 7, -0.124359130859375, 
21.1796875, -313, 0, 7, -0.119400024414063, 
21.1875, -343, 0, 7, -0.130844116210938, 
21.1953125, -394, 0, 7, -0.150299072265625, 
21.203125, -427, 0, 7, -0.162887573242188, 
21.2109375, -401, 0, 7, -0.152969360351563, 
21.21875, -362, 0, 7, -0.138092041015625, 
21.2265625, -377, 0, 7, -0.143814086914063, 
21.234375, -432, 0, 7, -0.164794921875, 
21.2421875, -499, 2, 7, -0.190353393554688, 
21.25, -501, 0, 7, -0.191116333007813, 
21.2578125, -407, 0, 7, -0.155258178710938, 
21.265625, -316, 0, 7, -0.12054443359375, 
21.2734375, -307, 0, 7, -0.117111206054688, 
21.28125, -328, 0, 7, -0.1251220703125, 
21.2890625, -282, 0, 7, -0.107574462890625, 
21.296875, -219, 0, 7, -0.0835418701171875, 
21.3046875, -274, 0, 7, -0.104522705078125, 
21.3125, -389, 0, 7, -0.148391723632813, 
21.3203125, -374, 0, 7, -0.142669677734375, 
21.328125, -219, 0, 7, -0.0835418701171875, 
21.3359375, -119, 0, 7, -0.0453948974609375, 
21.34375, -158, 0, 7, -0.060272216796875, 
21.3515625, -215, 0, 7, -0.0820159912109375, 
21.359375, -205, 0, 7, -0.0782012939453125, 
21.3671875, -198, 2, 7, -0.075531005859375, 
21.375, -263, 0, 7, -0.100326538085938, 
21.3828125, -315, 0, 7, -0.120162963867188, 
21.390625, -272, 0, 7, -0.103759765625, 
21.3984375, -215, 0, 7, -0.0820159912109375, 
21.40625, -228, 0, 7, -0.08697509765625, 
21.4140625, -241, 0, 7, -0.0919342041015625, 
21.421875, -199, 0, 7, -0.0759124755859375, 
21.4296875, -171, 0, 7, -0.0652313232421875, 
21.4375, -178, 0, 7, -0.067901611328125, 
21.4453125, -195, 0, 7, -0.0743865966796875, 
21.453125, -207, 0, 7, -0.0789642333984375, 
21.4609375, -215, 0, 7, -0.0820159912109375, 
21.46875, -243, 0, 7, -0.0926971435546875, 
21.4765625, -236, 0, 7, -0.09002685546875, 
21.484375, -173, 0, 7, -0.0659942626953125, 
21.4921875, -132, 2, 7, -0.05035400390625, 
21.5, -191, 0, 7, -0.0728607177734375, 
21.5078125, -251, 0, 7, -0.0957489013671875, 
21.515625, -202, 0, 7, -0.077056884765625, 
21.5234375, -118, 0, 7, -0.045013427734375, 
21.53125, -91, 0, 7, -0.0347137451171875, 
21.5390625, -118, 0, 7, -0.045013427734375, 
21.546875, -166, 0, 7, -0.063323974609375, 
21.5546875, -204, 0, 7, -0.07781982421875, 
21.5625, -238, 0, 7, -0.090789794921875, 
21.5703125, -198, 0, 7, -0.075531005859375, 
21.578125, -46, 0, 7, -0.017547607421875, 
21.5859375, 98, 0, 7, 0.037384033203125, 
21.59375, 68, 0, 7, 0.02593994140625, 
21.6015625, -159, 0, 7, -0.0606536865234375, 
21.609375, -365, 0, 7, -0.139236450195313, 
21.6171875, -388, 2, 7, -0.14801025390625, 
21.625, -243, 0, 7, -0.0926971435546875, 
21.6328125, -74, 0, 7, -0.028228759765625, 
21.640625, -82, 0, 7, -0.031280517578125, 
21.6484375, -178, 0, 7, -0.067901611328125, 
21.65625, -177, 0, 7, -0.0675201416015625, 
21.6640625, -95, 0, 7, -0.0362396240234375, 
21.671875, -74, 0, 7, -0.028228759765625, 
21.6796875, -109, 0, 7, -0.0415802001953125, 
21.6875, -85, 0, 7, -0.0324249267578125, 
21.6953125, -21, 0, 7, -0.0080108642578125, 
21.703125, -59, 0, 7, -0.0225067138671875, 
21.7109375, -266, 0, 7, -0.101470947265625, 
21.71875, -482, 0, 7, -0.183868408203125, 
21.7265625, -459, 0, 7, -0.175094604492188, 
21.734375, -280, 0, 7, -0.1068115234375, 
21.7421875, -201, 2, 7, -0.0766754150390625, 
21.75, -221, 0, 7, -0.0843048095703125, 
21.7578125, -218, 0, 7, -0.083160400390625, 
21.765625, -124, 0, 7, -0.04730224609375, 
21.7734375, -6, 0, 7, -0.002288818359375, 
21.78125, -11, 0, 7, -0.0041961669921875, 
21.7890625, -119, 0, 7, -0.0453948974609375, 
21.796875, -166, 0, 7, -0.063323974609375, 
21.8046875, -137, 0, 7, -0.0522613525390625, 
21.8125, -90, 0, 7, -0.034332275390625, 
21.8203125, -60, 0, 7, -0.02288818359375, 
21.828125, -68, 0, 7, -0.02593994140625, 
21.8359375, -107, 0, 7, -0.0408172607421875, 
21.84375, -125, 0, 7, -0.0476837158203125, 
21.8515625, -99, 0, 7, -0.0377655029296875, 
21.859375, -45, 0, 7, -0.0171661376953125, 
21.8671875, -25, 2, 7, -0.0095367431640625, 
21.875, -67, 0, 7, -0.0255584716796875, 
21.8828125, -86, 0, 7, -0.032806396484375, 
21.890625, -43, 0, 7, -0.0164031982421875, 
21.8984375, -15, 0, 7, -0.0057220458984375, 
21.90625, -53, 0, 7, -0.0202178955078125, 
21.9140625, -66, 0, 7, -0.025177001953125, 
21.921875, -3, 0, 7, -0.0011444091796875, 
21.9296875, 67, 0, 7, 0.0255584716796875, 
21.9375, 108, 0, 7, 0.04119873046875, 
21.9453125, 132, 0, 7, 0.05035400390625, 
21.953125, 144, 0, 7, 0.054931640625, 
21.9609375, 115, 0, 7, 0.0438690185546875, 
21.96875, 53, 0, 7, 0.0202178955078125, 
21.9765625, 43, 0, 7, 0.0164031982421875, 
21.984375, 89, 0, 7, 0.0339508056640625, 
21.9921875, 121, 2, 7, 0.0461578369140625, 
22, 71, 0, 7, 0.0270843505859375, 
22.0078125, -33, 0, 7, -0.0125885009765625, 
22.015625, -106, 0, 7, -0.040435791015625, 
22.0234375, -155, 0, 7, -0.0591278076171875, 
22.03125, -195, 0, 7, -0.0743865966796875, 
22.0390625, -231, 0, 7, -0.0881195068359375, 
22.046875, -325, 0, 7, -0.123977661132813, 
22.0546875, -456, 0, 7, -0.1739501953125, 
22.0625, -485, 0, 7, -0.185012817382813, 
22.0703125, -373, 0, 7, -0.142288208007813, 
22.078125, -253, 0, 7, -0.0965118408203125, 
22.0859375, -218, 0, 7, -0.083160400390625, 
22.09375, -199, 0, 7, -0.0759124755859375, 
22.1015625, -181, 0, 7, -0.0690460205078125, 
22.109375, -191, 0, 7, -0.0728607177734375, 
22.1171875, -238, 2, 7, -0.090789794921875, 
22.125, -284, 0, 7, -0.10833740234375, 
22.1328125, -255, 0, 7, -0.0972747802734375, 
22.140625, -211, 0, 7, -0.0804901123046875, 
22.1484375, -227, 0, 7, -0.0865936279296875, 
22.15625, -270, 0, 7, -0.102996826171875, 
22.1640625, -273, 0, 7, -0.104141235351563, 
22.171875, -185, 0, 7, -0.0705718994140625, 
22.1796875, -76, 0, 7, -0.02899169921875, 
22.1875, -49, 0, 7, -0.0186920166015625, 
