% Mode = SPO2
% Sample Rate (Hz) = 100 Sample Average = 1 Pulse Width (us) = 411 ADC Full Scale Range (nA) = 8192
%  LED Red (mA) = 10.15625 LED IR (mA) = 10.15625 LED Green (mA) = 10.15625
% LED Slot 1 = 1 LED Slot 2 = 2 LED Slot 3 = 3 LED Slot 4 = 0
Time (s), Red, IR (Infrared), Green
0,57388,57366,
0.01,73691,73674,
0.02,86249,90110,
0.03,85854,95558,
0.04,85865,95588,
0.05,85877,95635,
0.06,85886,95665,
0.07,85894,95702,
0.08,85914,95729,
0.09,85934,95766,
0.1,85937,95794,
0.11,85946,95812,
0.12,85951,95827,
0.13,85971,95850,
0.14,85961,95844,
0.15,85961,95843,
0.16,85953,95849,
0.17,85953,95842,
0.18,85972,95876,
0.19,85987,95912,
0.2,85993,95941,
0.21,86021,95994,
0.22,86033,96037,
0.23,86054,96080,
0.24,86067,96111,
0.25,86084,96157,
0.26,86086,96185,
0.27,86107,96204,
0.28,86126,96240,
0.29,86131,96268,
0.3,86142,96301,
0.31,86154,96320,
0.32,86161,96336,
0.33,86181,96376,
0.34,86192,96408,
0.35,86217,96446,
0.36,86228,96485,
0.37,86248,96521,
0.38,86255,96548,
0.39,86268,96575,
0.4,86268,96575,
0.41,86274,96591,
0.42,86281,96611,
0.43,86285,96627,
0.44,86294,96652,
0.45,86310,96677,
0.46,86321,96694,
0.47,86322,96734,
0.48,86345,96762,
0.49,86366,96783,
0.5,86367,96814,
0.51,86379,96831,
0.52,86395,96862,
0.53,86401,96895,
0.54,86414,96933,
0.55,86437,96965,
0.56,86443,96996,
0.57,86448,97002,
0.58,86463,96984,
0.59,86432,96915,
0.6,86404,96827,
0.61,86350,96700,
0.62,86291,96565,
0.63,86229,96386,
0.64,86160,96221,
0.65,86098,96050,
0.66,86032,95905,
0.67,85988,95797,
0.68,85950,95709,
0.69,85942,95661,
0.7,85918,95618,
0.71,85908,95593,
0.72,85900,95593,
0.73,85894,95570,
0.74,85885,95579,
0.75,85891,95565,
0.76,85893,95564,
0.77,85893,95559,
0.78,85885,95559,
0.79,85888,95551,
0.8,85885,95557,
0.81,85889,95557,
0.82,85888,95564,
0.83,85890,95579,
0.84,85898,95594,
0.85,85905,95615,
0.86,85921,95649,
0.87,85940,95687,
0.88,85952,95721,
0.89,85972,95738,
0.9,85977,95747,
0.91,85986,95783,
0.92,85987,95796,
0.93,85999,95803,
0.94,86005,95823,
0.95,86018,95838,
0.96,86013,95837,
0.97,86023,95862,
0.98,86041,95875,
0.99,86053,95934,
1,86078,95971,
1.01,86096,96020,
1.02,86124,96062,
1.03,86134,96110,
1.04,86158,96154,
1.05,86176,96204,
1.06,86203,96259,
1.07,86219,96287,
1.08,86237,96348,
1.09,86261,96389,
1.1,86259,96412,
1.11,86286,96458,
1.12,86296,96481,
1.13,86312,96505,
1.14,86315,96544,
1.15,86327,96568,
1.16,86334,96587,
1.17,86342,96600,
1.18,86347,96633,
1.19,86372,96666,
1.2,86389,96702,
1.21,86402,96750,
1.22,86420,96781,
1.23,86444,96827,
1.24,86455,96859,
1.25,86459,96890,
1.26,86469,96904,
1.27,86485,96942,
1.28,86500,96967,
1.29,86506,96987,
1.3,86512,97016,
1.31,86528,97046,
1.32,86551,97086,
1.33,86556,97126,
1.34,86578,97156,
1.35,86599,97205,
1.36,86612,97240,
1.37,86627,97287,
1.38,86640,97313,
1.39,86653,97339,
1.4,86653,97343,
1.41,86641,97287,
1.42,86604,97191,
1.43,86562,97074,
1.44,86515,96933,
1.45,86455,96792,
1.46,86397,96627,
1.47,86327,96456,
1.48,86263,96282,
1.49,86196,96126,
1.5,86130,95979,
1.51,86091,95881,
1.52,86059,95826,
1.53,86053,95782,
1.54,86048,95770,
1.55,86051,95768,
1.56,86052,95787,
1.57,86076,95800,
1.58,86074,95823,
1.59,86080,95830,
1.6,86100,95847,
1.61,86101,95872,
1.62,86104,95870,
1.63,86096,95889,
1.64,86121,95915,
1.65,86132,95949,
1.66,86137,95977,
1.67,86151,95999,
1.68,86170,96037,
1.69,86180,96076,
1.7,86207,96101,
1.71,86224,96138,
1.72,86227,96148,
1.73,86233,96173,
1.74,86235,96179,
1.75,86231,96183,
1.76,86240,96196,
1.77,86241,96214,
1.78,86254,96223,
1.79,86271,96239,
1.8,86266,96269,
1.81,86285,96286,
1.82,86298,96322,
1.83,86305,96350,
1.84,86326,96403,
1.85,86350,96440,
1.86,86372,96489,
1.87,86402,96548,
1.88,86412,96594,
1.89,86425,96637,
1.9,86448,96679,
1.91,86453,96703,
1.92,86474,96742,
1.93,86486,96779,
1.94,86497,96798,
1.95,86510,96835,
1.96,86515,96856,
1.97,86530,96884,
1.98,86540,96903,
1.99,86556,96952,
2,86569,96984,
2.01,86589,97025,
2.02,86614,97059,
2.03,86634,97091,
2.04,86638,97130,
2.05,86661,97157,
2.06,86666,97187,
2.07,86682,97216,
2.08,86692,97248,
2.09,86701,97286,
2.1,86737,97307,
2.11,86728,97339,
2.12,86754,97364,
2.13,86749,97412,
2.14,86764,97439,
2.15,86784,97459,
2.16,86790,97500,
2.17,86802,97520,
2.18,86806,97549,
2.19,86828,97586,
2.2,86846,97630,
2.21,86853,97670,
2.22,86884,97710,
2.23,86895,97742,
2.24,86903,97769,
2.25,86898,97766,
2.26,86888,97712,
2.27,86855,97632,
2.28,86822,97531,
2.29,86771,97405,
2.3,86731,97272,
2.31,86668,97127,
2.32,86621,96991,
2.33,86564,96849,
2.34,86514,96720,
2.35,86456,96608,
2.36,86430,96499,
2.37,86396,96439,
2.38,86377,96389,
2.39,86361,96350,
2.4,86357,96336,
2.41,86351,96329,
2.42,86345,96334,
2.43,86363,96353,
2.44,86371,96376,
2.45,86377,96398,
2.46,86384,96420,
2.47,86396,96427,
2.48,86389,96443,
2.49,86402,96461,
2.5,86415,96496,
2.51,86413,96506,
2.52,86420,96517,
2.53,86426,96549,
2.54,86442,96575,
2.55,86457,96595,
2.56,86472,96611,
2.57,86471,96627,
2.58,86480,96628,
2.59,86480,96639,
2.6,86475,96639,
2.61,86482,96638,
2.62,86467,96648,
2.63,86495,96657,
2.64,86498,96685,
2.65,86507,96716,
2.66,86518,96753,
2.67,86543,96771,
2.68,86549,96803,
2.69,86563,96838,
2.7,86582,96880,
2.71,86600,96923,
2.72,86618,96954,
2.73,86632,96988,
2.74,86637,97026,
2.75,86651,97063,
2.76,86666,97084,
2.77,86670,97106,
2.78,86684,97121,
2.79,86683,97144,
2.8,86689,97158,
2.81,86700,97183,
2.82,86707,97218,
2.83,86714,97240,
2.84,86734,97285,
2.85,86751,97312,
2.86,86770,97347,
2.87,86781,97374,
2.88,86785,97402,
2.89,86784,97424,
2.9,86805,97441,
2.91,86799,97452,
2.92,86802,97473,
2.93,86818,97484,
2.94,86832,97522,
2.95,86835,97552,
2.96,86859,97580,
2.97,86871,97626,
2.98,86900,97669,
2.99,86892,97684,
3,86908,97712,
3.01,86919,97748,
3.02,86933,97781,
3.03,86938,97804,
3.04,86958,97841,
3.05,86969,97866,
3.06,86992,97891,
3.07,86988,97906,
3.08,86983,97888,
3.09,86963,97826,
3.1,86935,97726,
3.11,86899,97627,
3.12,86852,97517,
3.13,86801,97387,
3.14,86773,97278,
3.15,86727,97163,
3.16,86679,97037,
3.17,86623,96935,
3.18,86589,96828,
3.19,86571,96754,
3.2,86518,96698,
3.21,86522,96647,
3.22,86514,96621,
3.23,86509,96615,
3.24,86498,96607,
3.25,86491,96596,
3.26,86494,96593,
3.27,86494,96601,
3.28,86497,96605,
3.29,86511,96609,
3.3,86511,96633,
3.31,86518,96652,
3.32,86527,96683,
3.33,86524,96687,
3.34,86535,96704,
3.35,86546,96729,
3.36,86555,96751,
3.37,86561,96759,
3.38,86568,96778,
3.39,86570,96775,
3.4,86560,96781,
3.41,86569,96776,
3.42,86577,96766,
3.43,86567,96781,
3.44,86566,96774,
3.45,86565,96784,
3.46,86578,96792,
3.47,86586,96818,
3.48,86590,96840,
3.49,86604,96863,
3.5,86605,96886,
3.51,86624,96910,
3.52,86629,96936,
3.53,86636,96971,
3.54,86653,97009,
3.55,86669,97024,
3.56,86680,97059,
3.57,86685,97109,
3.58,86710,97141,
3.59,86719,97180,
3.6,86727,97218,
3.61,86752,97238,
3.62,86759,97268,
3.63,86774,97308,
3.64,86784,97331,
3.65,86798,97361,
3.66,86800,97376,
3.67,86803,97390,
3.68,86803,97408,
3.69,86825,97438,
3.7,86834,97463,
3.71,86855,97499,
3.72,86870,97531,
3.73,86880,97549,
3.74,86880,97586,
3.75,86892,97597,
3.76,86903,97634,
3.77,86911,97644,
3.78,86923,97672,
3.79,86932,97707,
3.8,86939,97737,
3.81,86946,97758,
3.82,86962,97785,
3.83,86977,97807,
3.84,86980,97846,
3.85,86998,97888,
3.86,87012,97912,
3.87,87019,97927,
3.88,87015,97941,
3.89,87014,97901,
3.9,86993,97823,
3.91,86953,97723,
3.92,86898,97586,
3.93,86857,97468,
3.94,86808,97338,
3.95,86764,97211,
3.96,86708,97069,
3.97,86662,96938,
3.98,86606,96826,
3.99,86572,96718,
4,86523,96633,
4.01,86520,96566,
4.02,86486,96534,
4.03,86488,96514,
4.04,86485,96500,
4.05,86479,96492,
4.06,86483,96497,
4.07,86476,96497,
4.08,86468,96488,
4.09,86469,96483,
4.1,86470,96491,
4.11,86468,96496,
4.12,86480,96505,
4.13,86476,96522,
4.14,86499,96554,
4.15,86501,96580,
4.16,86510,96591,
4.17,86527,96611,
4.18,86522,96643,
4.19,86535,96665,
4.2,86537,96687,
4.21,86549,96703,
4.22,86559,96686,
4.23,86554,96701,
4.24,86551,96716,
4.25,86567,96740,
4.26,86561,96734,
4.27,86572,96754,
4.28,86583,96776,
4.29,86597,96799,
4.3,86599,96827,
4.31,86607,96853,
4.32,86611,96856,
4.33,86624,96910,
4.34,86639,96942,
4.35,86657,96977,
4.36,86675,97023,
4.37,86690,97056,
4.38,86698,97077,
4.39,86708,97103,
4.4,86723,97120,
4.41,86737,97158,
4.42,86735,97190,
4.43,86757,97219,
4.44,86772,97249,
4.45,86779,97271,
4.46,86783,97287,
4.47,86800,97323,
4.48,86810,97359,
4.49,86831,97388,
4.5,86839,97411,
4.51,86851,97438,
4.52,86856,97468,
4.53,86875,97506,
4.54,86873,97525,
4.55,86893,97547,
4.56,86893,97562,
4.57,86914,97588,
4.58,86917,97603,
4.59,86922,97627,
4.6,86927,97653,
4.61,86941,97681,
4.62,86952,97708,
4.63,86965,97717,
4.64,86973,97754,
4.65,86984,97790,
4.66,86994,97810,
4.67,87002,97841,
4.68,87022,97877,
4.69,87026,97894,
4.7,87035,97926,
4.71,87033,97939,
4.72,87027,97891,
4.73,87005,97824,
4.74,86974,97731,
4.75,86924,97622,
4.76,86879,97488,
4.77,86825,97345,
4.78,86781,97210,
4.79,86714,97070,
4.8,86676,96932,
4.81,86624,96812,
4.82,86580,96704,
4.83,86540,96612,
4.84,86519,96554,
4.85,86489,96492,
4.86,86486,96477,
4.87,86474,96453,
4.88,86480,96442,
4.89,86474,96450,
4.9,86468,96450,
4.91,86468,96436,
4.92,86465,96425,
4.93,86464,96410,
4.94,86453,96397,
4.95,86458,96408,
4.96,86463,96424,
4.97,86463,96453,
4.98,86480,96488,
4.99,86499,96520,
5,86502,96550,
5.01,86523,96571,
5.02,86512,96579,
5.03,86526,96594,
5.04,86523,96603,
5.05,86522,96600,
5.06,86520,96594,
5.07,86520,96595,
5.08,86509,96574,
5.09,86510,96563,
5.1,86505,96562,
5.11,86515,96592,
5.12,86526,96613,
5.13,86526,96631,
5.14,86545,96662,
5.15,86557,96697,
5.16,86577,96733,
5.17,86579,96760,
5.18,86596,96800,
5.19,86615,96826,
5.2,86627,96849,
5.21,86622,96883,
5.22,86634,96913,
5.23,86646,96928,
5.24,86658,96953,
5.25,86671,96971,
5.26,86677,97008,
5.27,86686,97041,
5.28,86703,97067,
5.29,86717,97102,
5.3,86732,97132,
5.31,86740,97161,
5.32,86756,97192,
5.33,86774,97220,
5.34,86771,97244,
5.35,86777,97275,
5.36,86788,97293,
5.37,86794,97314,
5.38,86807,97343,
5.39,86819,97361,
5.4,86830,97388,
5.41,86835,97427,
5.42,86855,97446,
5.43,86858,97478,
5.44,86872,97504,
5.45,86888,97529,
5.46,86891,97557,
5.47,86904,97582,
5.48,86919,97618,
5.49,86936,97639,
5.5,86941,97660,
5.51,86935,97687,
5.52,86969,97725,
5.53,86978,97752,
5.54,86998,97802,
5.55,87018,97821,
5.56,87010,97829,
5.57,86995,97786,
5.58,86957,97709,
5.59,86936,97598,
5.6,86897,97493,
5.61,86859,97373,
5.62,86806,97243,
5.63,86758,97120,
5.64,86713,96976,
5.65,86657,96841,
5.66,86597,96715,
5.67,86554,96620,
5.68,86531,96534,
5.69,86502,96493,
5.7,86496,96451,
5.71,86496,96456,
5.72,86485,96450,
5.73,86476,96438,
5.74,86486,96430,
5.75,86478,96423,
5.76,86476,96410,
5.77,86456,96402,
5.78,86464,96389,
5.79,86469,96393,
5.8,86452,96420,
5.81,86476,96433,
5.82,86491,96483,
5.83,86506,96490,
5.84,86515,96524,
5.85,86515,96549,
5.86,86537,96570,
5.87,86530,96585,
5.88,86544,96607,
5.89,86563,96634,
5.9,86565,96650,
5.91,86568,96671,
5.92,86568,96670,
5.93,86581,96686,
5.94,86564,96677,
5.95,86565,96679,
5.96,86572,96685,
5.97,86579,96713,
5.98,86580,96740,
5.99,86590,96754,
6,86618,96794,
6.01,86637,96834,
6.02,86639,96879,
6.03,86654,96914,
6.04,86666,96938,
6.05,86679,96978,
6.06,86694,97015,
6.07,86707,97037,
6.08,86721,97079,
6.09,86728,97098,
6.1,86735,97124,
6.11,86753,97155,
6.12,86767,97185,
6.13,86791,97218,
6.14,86792,97250,
6.15,86808,97289,
6.16,86822,97316,
6.17,86831,97349,
6.18,86847,97386,
6.19,86863,97408,
6.2,86855,97432,
6.21,86868,97448,
6.22,86880,97474,
6.23,86887,97502,
6.24,86901,97529,
6.25,86898,97567,
6.26,86929,97596,
6.27,86936,97626,
6.28,86936,97652,
6.29,86949,97683,
6.3,86971,97714,
6.31,86984,97731,
6.32,86993,97770,
6.33,87005,97821,
6.34,87025,97845,
6.35,87039,97888,
6.36,87050,97920,
6.37,87068,97960,
6.38,87075,97991,
6.39,87089,98019,
6.4,87092,98051,
6.41,87107,98060,
6.42,87092,98020,
6.43,87068,97938,
6.44,87037,97840,
6.45,86986,97731,
6.46,86948,97608,
6.47,86892,97473,
6.48,86848,97347,
6.49,86783,97214,
6.5,86732,97085,
6.51,86688,96964,
6.52,86648,96847,
6.53,86607,96765,
6.54,86582,96692,
6.55,86566,96654,
6.56,86544,96636,
6.57,86541,96606,
6.58,86553,96605,
6.59,86540,96605,
6.6,86555,96612,
6.61,86547,96600,
6.62,86533,96591,
6.63,86541,96593,
6.64,86534,96593,
6.65,86547,96613,
6.66,86555,96635,
6.67,86559,96655,
6.68,86573,96686,
6.69,86584,96704,
6.7,86578,96739,
6.71,86605,96760,
6.72,86606,96783,
6.73,86619,96793,
6.74,86626,96819,
6.75,86631,96815,
6.76,86624,96820,
6.77,86616,96818,
6.78,86643,96816,
6.79,86623,96831,
6.8,86625,96830,
6.81,86632,96851,
6.82,86643,96860,
6.83,86646,96872,
6.84,86651,96897,
6.85,86664,96922,
6.86,86665,96947,
6.87,86682,96980,
6.88,86700,97015,
6.89,86711,97067,
6.9,86734,97098,
6.91,86747,97147,
6.92,86755,97175,
6.93,86775,97212,
6.94,86784,97231,
6.95,86800,97271,
6.96,86818,97301,
6.97,86822,97315,
6.98,86822,97326,
6.99,86822,97342,
7,86820,97341,
7.01,86829,97358,
7.02,86833,97374,
7.03,86848,97393,
7.04,86846,97412,
7.05,86849,97435,
7.06,86870,97470,
7.07,86888,97488,
7.08,86881,97515,
7.09,86891,97537,
7.1,86913,97577,
7.11,86928,97593,
7.12,86931,97628,
7.13,86938,97653,
7.14,86955,97673,
7.15,86959,97702,
7.16,86964,97730,
7.17,86984,97749,
7.18,86983,97771,
7.19,86994,97797,
7.2,87005,97820,
7.21,87011,97833,
7.22,87019,97851,
7.23,87025,97870,
7.24,87016,97856,
7.25,87003,97816,
7.26,86984,97738,
7.27,86936,97634,
7.28,86902,97519,
7.29,86850,97397,
7.3,86802,97265,
7.31,86743,97114,
7.32,86682,96965,
7.33,86633,96829,
7.34,86573,96709,
7.35,86531,96602,
7.36,86499,96536,
7.37,86490,96491,
7.38,86483,96452,
7.39,86465,96432,
7.4,86462,96425,
7.41,86459,96405,
7.42,86447,96419,
7.43,86446,96401,
7.44,86454,96390,
7.45,86445,96390,
7.46,86451,96386,
7.47,86449,96405,
7.48,86454,96410,
7.49,86462,96442,
7.5,86478,96459,
7.51,86473,96482,
7.52,86480,96497,
7.53,86480,96506,
7.54,86488,96512,
7.55,86489,96522,
7.56,86489,96522,
7.57,86480,96521,
7.58,86495,96530,
7.59,86486,96520,
7.6,86494,96521,
7.61,86496,96537,
7.62,86491,96537,
7.63,86500,96547,
7.64,86502,96567,
7.65,86513,96588,
7.66,86520,96615,
7.67,86533,96653,
7.68,86555,96681,
7.69,86575,96729,
7.7,86593,96783,
7.71,86608,96832,
7.72,86635,96860,
7.73,86646,96908,
7.74,86658,96941,
7.75,86678,96983,
7.76,86697,97020,
7.77,86702,97058,
7.78,86709,97086,
7.79,86712,97101,
7.8,86737,97113,
7.81,86746,97155,
7.82,86747,97180,
7.83,86774,97214,
7.84,86784,97242,
7.85,86794,97269,
7.86,86808,97320,
7.87,86832,97360,
7.88,86848,97387,
7.89,86867,97421,
7.9,86880,97449,
7.91,86882,97493,
7.92,86887,97516,
7.93,86912,97545,
7.94,86912,97572,
7.95,86920,97592,
7.96,86933,97627,
7.97,86943,97656,
7.98,86958,97675,
7.99,86967,97698,
8,86965,97729,
8.01,86996,97765,
8.02,86998,97800,
8.03,87014,97829,
8.04,87024,97861,
8.05,87018,97849,
8.06,87018,97808,
8.07,86992,97738,
8.08,86946,97629,
8.09,86914,97504,
8.1,86865,97381,
8.11,86810,97241,
8.12,86742,97098,
8.13,86696,96966,
8.14,86645,96834,
8.15,86594,96707,
8.16,86553,96600,
8.17,86513,96518,
8.18,86484,96459,
8.19,86466,96419,
8.2,86470,96410,
8.21,86477,96383,
8.22,86463,96374,
8.23,86454,96365,
8.24,86458,96364,
8.25,86444,96335,
8.26,86437,96323,
8.27,86437,96322,
8.28,86425,96313,
8.29,86444,96335,
8.3,86439,96346,
8.31,86454,96378,
8.32,86457,96408,
8.33,86475,96436,
8.34,86480,96464,
8.35,86494,96489,
8.36,86498,96507,
8.37,86503,96522,
8.38,86512,96542,
8.39,86520,96541,
8.4,86526,96552,
8.41,86525,96564,
8.42,86521,96557,
8.43,86528,96568,
8.44,86535,96585,
8.45,86542,96610,
8.46,86547,96638,
8.47,86561,96659,
8.48,86576,96686,
8.49,86574,96717,
8.5,86592,96752,
8.51,86607,96776,
8.52,86608,96796,
8.53,86620,96833,
8.54,86633,96870,
8.55,86646,96899,
8.56,86662,96929,
8.57,86677,96962,
8.58,86689,96974,
8.59,86696,97024,
8.6,86717,97052,
8.61,86720,97071,
8.62,86729,97094,
8.63,86739,97114,
8.64,86749,97151,
8.65,86778,97196,
8.66,86790,97232,
8.67,86809,97266,
8.68,86811,97298,
8.69,86834,97337,
8.7,86836,97366,
8.71,86858,97379,
8.72,86847,97403,
8.73,86866,97421,
8.74,86866,97428,
8.75,86880,97461,
8.76,86881,97494,
8.77,86892,97499,
8.78,86906,97549,
8.79,86924,97558,
8.8,86914,97589,
8.81,86920,97601,
8.82,86937,97635,
8.83,86951,97666,
8.84,86958,97684,
8.85,86973,97718,
8.86,86991,97751,
8.87,86991,97741,
8.88,86982,97690,
8.89,86936,97613,
8.9,86900,97510,
8.91,86865,97391,
8.92,86816,97252,
8.93,86764,97115,
8.94,86696,96952,
8.95,86629,96813,
8.96,86577,96672,
8.97,86527,96542,
8.98,86485,96448,
8.99,86449,96376,
9,86431,96323,
9.01,86418,96292,
9.02,86405,96264,
9.03,86400,96250,
9.04,86402,96240,
9.05,86387,96230,
9.06,86390,96221,
9.07,86386,96210,
9.08,86384,96217,
9.09,86387,96230,
9.1,86383,96229,
9.11,86402,96240,
9.12,86415,96269,
9.13,86425,96304,
9.14,86430,96352,
9.15,86448,96377,
9.16,86459,96389,
9.17,86462,96417,
9.18,86470,96437,
9.19,86476,96456,
9.2,86479,96448,
9.21,86481,96458,
9.22,86490,96477,
9.23,86490,96480,
9.24,86490,96508,
9.25,86510,96521,
9.26,86523,96552,
9.27,86532,96583,
9.28,86540,96608,
9.29,86559,96641,
9.3,86556,96668,
9.31,86578,96690,
9.32,86595,96733,
9.33,86609,96764,
9.34,86615,96813,
9.35,86640,96849,
9.36,86665,96885,
9.37,86669,96890,
9.38,86671,96935,
9.39,86692,96956,
9.4,86694,96979,
9.41,86700,97008,
9.42,86720,97033,
9.43,86736,97061,
9.44,86733,97077,
9.45,86747,97111,
9.46,86759,97143,
9.47,86771,97156,
9.48,86773,97179,
9.49,86788,97213,
9.5,86795,97232,
9.51,86802,97252,
9.52,86822,97288,
9.53,86832,97318,
9.54,86840,97347,
9.55,86850,97361,
9.56,86864,97398,
9.57,86878,97435,
9.58,86894,97479,
9.59,86925,97512,
9.6,86932,97564,
9.61,86954,97584,
9.62,86963,97623,
9.63,86977,97649,
9.64,86968,97672,
9.65,86988,97700,
9.66,86995,97713,
9.67,87005,97748,
9.68,87010,97757,
9.69,87016,97773,
9.7,87003,97723,
9.71,86988,97643,
9.72,86942,97544,
9.73,86902,97433,
9.74,86849,97307,
9.75,86812,97174,
9.76,86761,97037,
9.77,86706,96914,
9.78,86646,96767,
9.79,86597,96643,
9.8,86553,96550,
9.81,86516,96474,
9.82,86508,96426,
9.83,86492,96383,
9.84,86493,96368,
9.85,86480,96371,
9.86,86486,96371,
9.87,86472,96347,
9.88,86473,96342,
9.89,86466,96331,
9.9,86455,96310,
9.91,86454,96314,
9.92,86452,96312,
9.93,86461,96325,
9.94,86461,96341,
9.95,86477,96371,
9.96,86477,96398,
9.97,86487,96418,
9.98,86498,96452,
9.99,86522,96477,
10,86529,96501,
10.01,86542,96510,
10.02,86538,96525,
10.03,86547,96534,
10.04,86546,96541,
10.05,86540,96524,
10.06,86536,96518,
10.07,86537,96533,
10.08,86545,96550,
10.09,86554,96570,
10.1,86569,96602,
10.11,86575,96634,
10.12,86586,96670,
10.13,86610,96722,
10.14,86627,96746,
10.15,86644,96790,
10.16,86652,96832,
10.17,86669,96873,
10.18,86695,96906,
10.19,86689,96928,
10.2,86702,96953,
10.21,86720,96983,
10.22,86731,97004,
10.23,86750,97021,
10.24,86744,97053,
10.25,86751,97081,
10.26,86765,97108,
10.27,86793,97148,
10.28,86809,97189,
10.29,86819,97211,
10.3,86828,97239,
10.31,86842,97265,
10.32,86852,97292,
10.33,86864,97320,
10.34,86859,97337,
10.35,86876,97364,
10.36,86891,97388,
10.37,86907,97422,
10.38,86922,97452,
10.39,86936,97468,
10.4,86934,97503,
10.41,86950,97523,
10.42,86953,97550,
10.43,86967,97573,
10.44,86972,97598,
10.45,86986,97623,
10.46,86978,97617,
10.47,86983,97645,
10.48,86985,97657,
10.49,86995,97658,
10.5,86970,97632,
10.51,86960,97580,
10.52,86942,97493,
10.53,86915,97406,
10.54,86864,97295,
10.55,86815,97169,
10.56,86773,97044,
10.57,86716,96909,
10.58,86662,96784,
10.59,86617,96653,
10.6,86568,96545,
10.61,86538,96470,
10.62,86513,96421,
10.63,86499,96373,
10.64,86493,96357,
10.65,86485,96370,
10.66,86494,96351,
10.67,86492,96375,
10.68,86497,96367,
10.69,86493,96358,
10.7,86488,96350,
10.71,86488,96364,
10.72,86486,96340,
10.73,86497,96376,
10.74,86513,96412,
10.75,86526,96444,
10.76,86533,96486,
10.77,86563,96515,
10.78,86564,96529,
10.79,86570,96555,
10.8,86580,96566,
10.81,86577,96564,
10.82,86567,96563,
10.83,86576,96578,
10.84,86581,96574,
10.85,86574,96586,
10.86,86582,96593,
10.87,86587,96606,
10.88,86600,96617,
10.89,86610,96644,
10.9,86619,96672,
10.91,86638,96692,
10.92,86645,96728,
10.93,86648,96757,
10.94,86656,96777,
10.95,86662,96809,
10.96,86681,96821,
10.97,86698,96870,
10.98,86705,96890,
10.99,86711,96923,
11,86725,96939,
11.01,86738,96970,
11.02,86740,96996,
11.03,86752,97013,
11.04,86756,97038,
11.05,86768,97060,
11.06,86775,97084,
11.07,86779,97107,
11.08,86800,97138,
11.09,86814,97160,
11.1,86825,97183,
11.11,86844,97210,
11.12,86837,97237,
11.13,86858,97261,
11.14,86866,97286,
11.15,86880,97317,
11.16,86893,97350,
11.17,86914,97365,
11.18,86927,97420,
11.19,86951,97446,
11.2,86966,97499,
11.21,86985,97515,
11.22,86998,97535,
11.23,86996,97560,
11.24,87015,97602,
11.25,87011,97608,
11.26,87027,97640,
11.27,87043,97665,
11.28,87049,97688,
11.29,87061,97716,
11.3,87069,97723,
11.31,87069,97717,
11.32,87050,97683,
11.33,87018,97610,
11.34,86981,97509,
11.35,86947,97395,
11.36,86897,97270,
11.37,86847,97151,
11.38,86788,96987,
11.39,86725,96838,
11.4,86657,96685,
11.41,86601,96534,
11.42,86548,96414,
11.43,86523,96335,
11.44,86509,96290,
11.45,86500,96272,
11.46,86513,96276,
11.47,86505,96298,
11.48,86515,96312,
11.49,86524,96325,
11.5,86526,96319,
11.51,86530,96318,
11.52,86516,96312,
11.53,86502,96285,
11.54,86490,96264,
11.55,86481,96229,
11.56,86457,96215,
11.57,86464,96210,
11.58,86441,96189,
11.59,86426,96183,
11.6,86421,96172,
11.61,86423,96161,
11.62,86431,96163,
11.63,86425,96150,
11.64,86432,96150,
11.65,86434,96164,
11.66,86439,96179,
11.67,86437,96191,
11.68,86447,96202,
11.69,86451,96226,
11.7,86461,96240,
11.71,86481,96261,
11.72,86477,96279,
11.73,86492,96298,
11.74,86500,96318,
11.75,86510,96359,
11.76,86520,96391,
11.77,86539,96418,
11.78,86555,96470,
11.79,86581,96512,
11.8,86592,96548,
11.81,86611,96579,
11.82,86609,96605,
11.83,86620,96619,
11.84,86621,96634,
11.85,86626,96647,
11.86,86629,96651,
11.87,86629,96667,
11.88,86656,96703,
11.89,86670,96742,
11.9,86690,96779,
11.91,86699,96819,
11.92,86712,96855,
11.93,86722,96876,
11.94,86738,96903,
11.95,86752,96909,
11.96,86744,96926,
11.97,86745,96942,
11.98,86751,96972,
11.99,86766,96985,
12,86773,97022,
12.01,86779,97036,
12.02,86793,97065,
12.03,86806,97092,
12.04,86827,97121,
12.05,86840,97147,
12.06,86839,97170,
12.07,86841,97206,
12.08,86857,97214,
12.09,86868,97244,
12.1,86872,97269,
12.11,86885,97288,
12.12,86893,97305,
12.13,86908,97343,
12.14,86912,97361,
12.15,86919,97379,
12.16,86924,97381,
12.17,86921,97352,
12.18,86888,97298,
12.19,86867,97218,
12.2,86828,97107,
12.21,86781,96985,
12.22,86727,96848,
12.23,86658,96688,
12.24,86605,96535,
12.25,86551,96392,
12.26,86497,96256,
12.27,86443,96143,
12.28,86414,96080,
12.29,86382,96018,
12.3,86373,95983,
12.31,86364,95970,
12.32,86368,95972,
12.33,86366,95973,
12.34,86360,95964,
12.35,86352,95969,
12.36,86354,95970,
12.37,86357,95959,
12.38,86353,95957,
12.39,86352,95963,
12.4,86351,95963,
12.41,86353,95984,
12.42,86376,96013,
12.43,86384,96048,
12.44,86403,96090,
12.45,86419,96136,
12.46,86421,96167,
12.47,86435,96173,
12.48,86448,96204,
12.49,86449,96223,
12.5,86468,96253,
12.51,86479,96269,
12.52,86492,96280,
12.53,86496,96305,
12.54,86502,96308,
12.55,86512,96338,
12.56,86521,96374,
12.57,86539,96403,
12.58,86562,96443,
12.59,86579,96487,
12.6,86593,96523,
12.61,86607,96570,
12.62,86621,96618,
12.63,86648,96648,
12.64,86663,96685,
12.65,86665,96724,
12.66,86689,96754,
12.67,86682,96783,
12.68,86703,96804,
12.69,86706,96835,
12.7,86734,96876,
12.71,86740,96906,
12.72,86759,96943,
12.73,86771,96974,
12.74,86790,97027,
12.75,86805,97041,
12.76,86807,97071,
12.77,86818,97083,
12.78,86827,97105,
12.79,86829,97130,
12.8,86822,97127,
12.81,86846,97155,
12.82,86847,97177,
12.83,86857,97197,
12.84,86862,97211,
12.85,86877,97232,
12.86,86878,97263,
12.87,86893,97285,
12.88,86909,97314,
12.89,86918,97337,
12.9,86929,97352,
12.91,86930,97380,
12.92,86931,97389,
12.93,86936,97414,
12.94,86945,97443,
12.95,86964,97455,
12.96,86970,97476,
12.97,86979,97501,
12.98,86996,97527,
12.99,87002,97554,
13,87001,97576,
13.01,87004,97591,
13.02,86998,97578,
13.03,86983,97529,
13.04,86965,97465,
13.05,86927,97346,
13.06,86901,97231,
13.07,86851,97109,
13.08,86792,96973,
13.09,86735,96830,
13.1,86681,96685,
13.11,86628,96552,
13.12,86570,96419,
13.13,86526,96332,
13.14,86503,96270,
13.15,86490,96238,
13.16,86503,96237,
13.17,86504,96245,
13.18,86501,96260,
13.19,86506,96273,
13.2,86516,96287,
13.21,86511,96272,
13.22,86506,96271,
13.23,86500,96251,
13.24,86510,96271,
13.25,86516,96261,
13.26,86515,96301,
13.27,86516,96305,
13.28,86522,96332,
13.29,86533,96360,
13.3,86537,96383,
13.31,86553,96409,
13.32,86560,96432,
13.33,86576,96460,
13.34,86579,96473,
13.35,86588,96473,
13.36,86584,96496,
13.37,86595,96484,
13.38,86590,96493,
13.39,86597,96505,
13.4,86612,96519,
13.41,86595,96524,
13.42,86614,96549,
13.43,86627,96575,
13.44,86630,96602,
13.45,86642,96624,
13.46,86654,96655,
13.47,86661,96685,
13.48,86681,96711,
13.49,86679,96741,
13.5,86702,96774,
13.51,86699,96800,
13.52,86718,96837,
13.53,86730,96876,
13.54,86765,96920,
13.55,86786,96959,
13.56,86793,97006,
13.57,86811,97030,
13.58,86814,97056,
13.59,86828,97082,
13.6,86832,97101,
13.61,86840,97111,
13.62,86858,97137,
13.63,86862,97169,
13.64,86858,97196,
13.65,86885,97217,
13.66,86888,97227,
13.67,86888,97254,
13.68,86898,97270,
13.69,86897,97283,
13.7,86913,97309,
13.71,86924,97327,
13.72,86928,97350,
13.73,86944,97371,
13.74,86950,97409,
13.75,86972,97446,
13.76,86976,97466,
13.77,86992,97497,
13.78,86995,97518,
13.79,87004,97544,
13.8,87010,97563,
13.81,87009,97601,
13.82,87030,97619,
13.83,87048,97651,
13.84,87050,97648,
13.85,87036,97624,
13.86,87011,97546,
13.87,86962,97429,
13.88,86922,97307,
13.89,86864,97173,
13.9,86813,97020,
13.91,86754,96849,
13.92,86686,96698,
13.93,86614,96540,
13.94,86564,96402,
13.95,86519,96304,
13.96,86488,96222,
13.97,86468,96176,
13.98,86463,96152,
13.99,86460,96146,
14,86458,96154,
14.01,86457,96157,
14.02,86469,96158,
14.03,86470,96162,
14.04,86467,96158,
14.05,86449,96151,
14.06,86454,96148,
14.07,86452,96159,
14.08,86445,96186,
14.09,86461,96189,
14.1,86464,96229,
14.11,86467,96245,
14.12,86478,96258,
14.13,86479,96280,
14.14,86493,96291,
14.15,86491,96296,
14.16,86499,96311,
14.17,86517,96339,
14.18,86520,96346,
14.19,86520,96369,
14.2,86534,96388,
14.21,86539,96379,
14.22,86532,96406,
14.23,86549,96416,
14.24,86554,96428,
14.25,86558,96439,
14.26,86558,96457,
14.27,86551,96472,
14.28,86577,96517,
14.29,86591,96543,
14.3,86610,96574,
14.31,86618,96607,
14.32,86626,96634,
14.33,86646,96682,
14.34,86661,96714,
14.35,86666,96740,
14.36,86687,96772,
14.37,86694,96801,
14.38,86706,96837,
14.39,86733,96860,
14.4,86737,96901,
14.41,86746,96930,
14.42,86746,96955,
14.43,86755,96966,
14.44,86773,97014,
14.45,86783,97041,
14.46,86788,97050,
14.47,86802,97077,
14.48,86820,97096,
14.49,86833,97135,
14.5,86850,97173,
14.51,86856,97193,
14.52,86876,97223,
14.53,86872,97245,
14.54,86890,97262,
14.55,86903,97297,
14.56,86902,97319,
14.57,86910,97328,
14.58,86933,97371,
14.59,86936,97388,
14.6,86947,97436,
14.61,86969,97461,
14.62,86987,97496,
14.63,86994,97542,
14.64,87005,97570,
14.65,87023,97597,
14.66,87016,97573,
14.67,86991,97512,
14.68,86961,97424,
14.69,86921,97308,
14.7,86883,97195,
14.71,86825,97048,
14.72,86768,96907,
14.73,86698,96754,
14.74,86649,96604,
14.75,86601,96470,
14.76,86555,96368,
14.77,86516,96272,
14.78,86483,96220,
14.79,86481,96197,
14.8,86475,96184,
14.81,86482,96192,
14.82,86492,96213,
14.83,86504,96227,
14.84,86486,96221,
14.85,86501,96221,
14.86,86483,96213,
14.87,86486,96197,
14.88,86471,96194,
14.89,86474,96205,
14.9,86489,96223,
14.91,86496,96261,
14.92,86499,96275,
14.93,86528,96302,
14.94,86533,96330,
14.95,86546,96349,
14.96,86551,96384,
14.97,86561,96403,
14.98,86566,96427,
14.99,86572,96422,
15,86583,96437,
15.01,86589,96447,
15.02,86582,96449,
15.03,86579,96456,
15.04,86587,96458,
15.05,86588,96472,
15.06,86598,96492,
15.07,86601,96502,
15.08,86595,96525,
15.09,86601,96528,
15.1,86603,96553,
15.11,86617,96565,
15.12,86623,96600,
15.13,86655,96644,
15.14,86664,96686,
15.15,86681,96709,
15.16,86695,96754,
15.17,86717,96806,
15.18,86731,96838,
15.19,86749,96865,
15.2,86753,96879,
15.21,86766,96922,
15.22,86776,96958,
15.23,86794,96959,
15.24,86796,96980,
15.25,86800,97006,
15.26,86816,97027,
15.27,86807,97045,
15.28,86827,97066,
15.29,86836,97078,
15.3,86843,97110,
15.31,86852,97130,
15.32,86865,97177,
15.33,86876,97193,
15.34,86893,97226,
15.35,86909,97259,
15.36,86915,97286,
15.37,86929,97310,
15.38,86934,97316,
15.39,86932,97342,
15.4,86944,97366,
15.41,86954,97382,
15.42,86965,97399,
15.43,86976,97430,
15.44,86986,97463,
15.45,87007,97495,
15.46,87014,97525,
15.47,87021,97557,
15.48,87039,97594,
15.49,87029,97605,
15.5,87037,97558,
15.51,86997,97486,
15.52,86968,97393,
15.53,86920,97265,
15.54,86874,97136,
15.55,86819,96997,
15.56,86760,96828,
15.57,86705,96685,
15.58,86638,96535,
15.59,86584,96416,
15.6,86536,96293,
15.61,86501,96207,
15.62,86484,96160,
15.63,86457,96119,
15.64,86453,96107,
15.65,86450,96104,
15.66,86446,96106,
15.67,86445,96101,
15.68,86453,96102,
15.69,86449,96113,
15.7,86451,96110,
15.71,86441,96093,
15.72,86434,96094,
15.73,86442,96101,
15.74,86455,96125,
15.75,86467,96157,
15.76,86472,96190,
15.77,86500,96225,
15.78,86506,96258,
15.79,86512,96287,
15.8,86519,96309,
15.81,86543,96335,
15.82,86553,96359,
15.83,86548,96361,
15.84,86561,96375,
15.85,86561,96387,
15.86,86569,96402,
15.87,86568,96401,
15.88,86565,96409,
15.89,86568,96411,
15.9,86570,96425,
15.91,86574,96433,
15.92,86576,96445,
15.93,86576,96462,
15.94,86584,96470,
15.95,86585,96495,
15.96,86599,96535,
15.97,86612,96578,
15.98,86638,96604,
15.99,86659,96640,
16,86663,96681,
16.01,86682,96717,
16.02,86691,96743,
16.03,86705,96773,
16.04,86710,96806,
16.05,86720,96835,
16.06,86736,96859,
16.07,86750,96882,
16.08,86744,96914,
16.09,86761,96944,
16.1,86777,96973,
16.11,86788,97003,
16.12,86801,97020,
16.13,86806,97049,
16.14,86824,97077,
16.15,86834,97098,
16.16,86829,97113,
16.17,86831,97122,
16.18,86856,97139,
16.19,86852,97159,
16.2,86869,97199,
16.21,86872,97220,
16.22,86897,97253,
16.23,86904,97293,
16.24,86923,97332,
16.25,86937,97373,
16.26,86957,97419,
16.27,86967,97445,
16.28,86988,97474,
16.29,86995,97507,
16.3,86999,97523,
16.31,87012,97540,
16.32,87015,97570,
16.33,87032,97598,
16.34,87039,97623,
16.35,87050,97644,
16.36,87041,97613,
16.37,87019,97541,
16.38,86973,97449,
16.39,86930,97325,
16.4,86885,97198,
16.41,86843,97063,
16.42,86786,96932,
16.43,86733,96799,
16.44,86674,96644,
16.45,86624,96515,
16.46,86584,96407,
16.47,86546,96318,
16.48,86510,96255,
16.49,86499,96208,
16.5,86484,96186,
16.51,86480,96183,
16.52,86483,96183,
16.53,86474,96162,
16.54,86480,96173,
16.55,86473,96173,
16.56,86473,96156,
16.57,86470,96163,
16.58,86472,96176,
16.59,86478,96192,
16.6,86492,96204,
16.61,86489,96236,
16.62,86500,96263,
16.63,86522,96288,
16.64,86531,96325,
16.65,86542,96346,
16.66,86549,96362,
16.67,86550,96379,
16.68,86535,96373,
16.69,86550,96345,
16.7,86530,96345,
16.71,86545,96340,
16.72,86538,96334,
16.73,86549,96350,
16.74,86545,96348,
16.75,86553,96347,
16.76,86542,96360,
16.77,86550,96383,
16.78,86560,96396,
16.79,86567,96423,
16.8,86575,96459,
16.81,86601,96488,
16.82,86627,96543,
16.83,86642,96577,
16.84,86655,96632,
16.85,86684,96675,
16.86,86684,96702,
16.87,86696,96725,
16.88,86701,96753,
16.89,86723,96762,
16.9,86725,96791,
16.91,86723,96810,
16.92,86729,96818,
16.93,86735,96840,
16.94,86738,96862,
16.95,86751,96877,
16.96,86756,96902,
16.97,86766,96916,
16.98,86773,96930,
16.99,86779,96967,
17,86801,96978,
17.01,86799,97001,
17.02,86810,97012,
17.03,86823,97044,
17.04,86818,97053,
17.05,86837,97070,
17.06,86836,97096,
17.07,86840,97112,
17.08,86857,97122,
17.09,86850,97133,
17.1,86857,97146,
17.11,86861,97167,
17.12,86879,97187,
17.13,86879,97222,
17.14,86895,97253,
17.15,86900,97272,
17.16,86913,97293,
17.17,86920,97313,
17.18,86926,97315,
17.19,86916,97293,
17.2,86895,97237,
17.21,86851,97136,
17.22,86808,97025,
17.23,86757,96871,
17.24,86696,96712,
17.25,86632,96553,
17.26,86564,96398,
17.27,86496,96240,
17.28,86445,96110,
17.29,86402,95998,
17.3,86366,95916,
17.31,86334,95867,
17.32,86315,95811,
17.33,86299,95775,
17.34,86280,95753,
17.35,86268,95739,
17.36,86267,95742,
17.37,86273,95732,
17.38,86273,95737,
17.39,86261,95731,
17.4,86279,95756,
17.41,86267,95748,
17.42,86285,95778,
17.43,86290,95799,
17.44,86310,95844,
17.45,86323,95884,
17.46,86348,95924,
17.47,86357,95963,
17.48,86379,95994,
17.49,86379,96013,
17.5,86388,96027,
17.51,86392,96047,
17.52,86391,96041,
17.53,86392,96042,
17.54,86391,96041,
17.55,86389,96038,
17.56,86397,96041,
17.57,86409,96080,
17.58,86425,96096,
17.59,86420,96123,
17.6,86434,96138,
17.61,86446,96171,
17.62,86452,96200,
17.63,86461,96237,
17.64,86469,96264,
17.65,86493,96304,
17.66,86515,96352,
17.67,86534,96393,
17.68,86550,96445,
17.69,86560,96479,
17.7,86577,96508,
17.71,86596,96543,
17.72,86606,96557,
17.73,86615,96584,
17.74,86617,96599,
17.75,86621,96610,
17.76,86625,96636,
17.77,86644,96658,
17.78,86643,96673,
17.79,86645,96695,
17.8,86662,96715,
17.81,86665,96736,
17.82,86670,96763,
17.83,86681,96793,
17.84,86710,96820,
17.85,86707,96829,
17.86,86707,96851,
17.87,86715,96858,
17.88,86719,96868,
17.89,86724,96896,
17.9,86728,96909,
17.91,86750,96947,
17.92,86772,96989,
17.93,86782,97020,
17.94,86795,97040,
17.95,86805,97076,
17.96,86816,97110,
17.97,86836,97144,
17.98,86844,97183,
17.99,86857,97209,
18,86873,97243,
18.01,86883,97253,
18.02,86881,97236,
18.03,86861,97167,
18.04,86818,97069,
18.05,86778,96953,
18.06,86733,96800,
18.07,86660,96652,
18.08,86604,96490,
18.09,86528,96321,
18.1,86469,96175,
18.11,86408,96022,
18.12,86362,95922,
18.13,86326,95834,
18.14,86300,95785,
18.15,86294,95749,
18.16,86281,95747,
18.17,86279,95747,
18.18,86298,95761,
18.19,86296,95779,
18.2,86296,95779,
18.21,86288,95781,
18.22,86287,95776,
18.23,86291,95770,
18.24,86276,95764,
18.25,86275,95759,
18.26,86287,95773,
18.27,86294,95804,
18.28,86304,95839,
18.29,86324,95876,
18.3,86336,95894,
18.31,86342,95927,
18.32,86355,95949,
18.33,86358,95970,
18.34,86349,95968,
18.35,86361,95968,
18.36,86359,95963,
18.37,86364,95964,
18.38,86371,95972,
18.39,86364,95986,
18.4,86377,96003,
18.41,86381,96015,
18.42,86393,96039,
18.43,86406,96077,
18.44,86410,96096,
18.45,86421,96129,
18.46,86443,96163,
18.47,86452,96187,
18.48,86469,96237,
18.49,86485,96273,
18.5,86503,96305,
18.51,86520,96352,
18.52,86545,96392,
18.53,86555,96436,
18.54,86573,96480,
18.55,86590,96531,
18.56,86606,96557,
18.57,86633,96592,
18.58,86640,96631,
18.59,86672,96664,
18.6,86671,96697,
18.61,86697,96736,
18.62,86702,96758,
18.63,86707,96766,
18.64,86714,96802,
18.65,86716,96812,
18.66,86722,96824,
18.67,86735,96825,
18.68,86721,96835,
18.69,86733,96844,
18.7,86735,96863,
18.71,86759,96897,
18.72,86786,96939,
18.73,86793,96974,
18.74,86822,96997,
18.75,86816,97045,
18.76,86827,97053,
18.77,86843,97088,
18.78,86849,97113,
18.79,86862,97144,
18.8,86878,97158,
18.81,86889,97181,
18.82,86901,97209,
18.83,86912,97229,
18.84,86920,97267,
18.85,86924,97274,
18.86,86936,97309,
18.87,86942,97301,
18.88,86917,97251,
18.89,86886,97149,
18.9,86840,97044,
18.91,86793,96903,
18.92,86737,96746,
18.93,86678,96577,
18.94,86592,96408,
18.95,86528,96238,
18.96,86467,96081,
18.97,86415,95961,
18.98,86381,95863,
18.99,86342,95792,
19,86316,95736,
19.01,86297,95690,
19.02,86273,95665,
19.03,86265,95645,
19.04,86268,95644,
19.05,86240,95636,
19.06,86246,95642,
19.07,86257,95635,
19.08,86250,95639,
19.09,86257,95641,
19.1,86257,95632,
19.11,86254,95652,
19.12,86266,95674,
19.13,86282,95686,
19.14,86274,95703,
19.15,86281,95734,
19.16,86288,95740,
19.17,86301,95758,
19.18,86308,95771,
19.19,86311,95785,
19.2,86317,95784,
19.21,86301,95784,
19.22,86312,95795,
19.23,86314,95790,
19.24,86318,95801,
19.25,86320,95805,
19.26,86332,95830,
19.27,86341,95855,
19.28,86351,95892,
19.29,86376,95921,
19.3,86377,95964,
19.31,86408,96022,
19.32,86424,96061,
19.33,86447,96119,
19.34,86472,96167,
19.35,86489,96199,
19.36,86499,96236,
19.37,86511,96267,
19.38,86528,96297,
19.39,86539,96329,
19.4,86548,96331,
19.41,86554,96365,
19.42,86576,96400,
19.43,86580,96431,
19.44,86605,96463,
19.45,86611,96505,
19.46,86625,96529,
19.47,86640,96570,
19.48,86659,96603,
19.49,86668,96618,
19.5,86675,96643,
19.51,86685,96666,
19.52,86690,96680,
19.53,86707,96710,
19.54,86718,96744,
19.55,86748,96784,
19.56,86761,96829,
19.57,86771,96864,
19.58,86797,96902,
19.59,86801,96929,
19.6,86810,96951,
19.61,86811,96972,
19.62,86828,97003,
19.63,86842,97017,
19.64,86842,97036,
19.65,86853,97072,
19.66,86868,97099,
19.67,86887,97135,
19.68,86907,97169,
19.69,86917,97206,
19.7,86934,97227,
19.71,86934,97246,
19.72,86945,97271,
19.73,86943,97273,
19.74,86940,97218,
19.75,86907,97133,
19.76,86874,97027,
19.77,86827,96897,
19.78,86758,96754,
19.79,86696,96589,
19.8,86636,96416,
19.81,86570,96260,
19.82,86508,96118,
19.83,86453,95979,
19.84,86413,95892,
19.85,86380,95824,
19.86,86373,95788,
19.87,86366,95770,
19.88,86356,95764,
19.89,86361,95768,
19.9,86353,95780,
19.91,86352,95783,
19.92,86366,95791,
19.93,86374,95801,
19.94,86369,95816,
19.95,86371,95812,
19.96,86388,95837,
19.97,86400,95854,
19.98,86400,95881,
19.99,86416,95895,
20,86423,95921,
20.01,86429,95951,
20.02,86439,95965,
20.03,86436,95982,
20.04,86434,95991,
20.05,86441,96008,
